
  0%|                                                                                                                                                                                                                                                                                            | 0/10 [00:00<?, ?it/s]
0, 0.1364392638206482
1, 0.1364392638206482
2, 0.12979230284690857
3, 0.11694790422916412
4, 0.09893621504306793
5, 0.07756023854017258
6, 0.05549607798457146
7, 0.03877308592200279
8, 0.02704542502760887
9, 0.01948978379368782
10, 0.015038145706057549
11, 0.012640557251870632
12, 0.011447614058852196
13, 0.010865207761526108
14, 0.010523682460188866
15, 0.010215606540441513
16, 0.009841597639024258
17, 0.009367154911160469
18, 0.008805107325315475
19, 0.0081809526309371
20, 0.007529743015766144
21, 0.006880376487970352
22, 0.00626184931024909
23, 0.005697102751582861
24, 0.005200911313295364
25, 0.004777934402227402
26, 0.004425391089171171
27, 0.004136744420975447
28, 0.003902153577655554
29, 0.003709010314196348
30, 0.0035452616866678
31, 0.00340075371786952
32, 0.0032659030985087156
33, 0.0031345542520284653
34, 0.0030029898043721914
35, 0.00286882440559566
36, 0.0027320922818034887
37, 0.0025934604927897453
38, 0.0024547474458813667
39, 0.0023181221913546324
40, 0.002185882069170475
41, 0.0020598589908331633
42, 0.0019416955765336752
43, 0.001832248060964048
44, 0.0017320773331448436
45, 0.001641344977542758
46, 0.0015594837022945285
47, 0.001486035413108766
48, 0.0014202751917764544
49, 0.001361234812065959
50, 0.0013079363852739334
51, 0.0012596666347235441
52, 0.0012156062293797731
53, 0.0011752378195524216
54, 0.0011379350908100605
55, 0.0011033876799046993
56, 0.0010712714865803719
57, 0.001041410956531763
58, 0.0010135932825505733
59, 0.0009876741096377373
60, 0.0009635807946324348
61, 0.0009412476792931557
62, 0.0009204819798469543
63, 0.0009013299713842571
64, 0.0008835921762511134
65, 0.0008672430994920433
66, 0.0008522183052264154
67, 0.0008383095264434814
68, 0.0008256101282313466
69, 0.0008138432167470455
70, 0.0008030727040022612
71, 0.0007932272274047136
72, 0.0007841467740945518
73, 0.0007758361170999706
74, 0.000768240075558424
75, 0.0007612769259139895
76, 0.0007549092988483608
77, 0.0007491278229281306
78, 0.000743843091186136
79, 0.0007390539394691586
80, 0.000734735862351954
81, 0.0007308261701837182
82, 0.000727339182049036
83, 0.0007242298452183604
84, 0.0007214455399662256
85, 0.0007189548341557384
86, 0.0007168134907260537
87, 0.0007149508455768228
88, 0.000713330926373601
89, 0.0007119616493582726
90, 0.0007108377758413553
91, 0.0007098745554685593
92, 0.0007091009756550193
93, 0.0007084819371812046
94, 0.0007079976494424045
95, 0.0007076500332914293
96, 0.0007074014283716679
97, 0.0007072566077113152
98, 0.0007071658037602901
99, 0.0007071169093251228
0 2.4191088676452637 0.05 7.640545845031738
1 2.2590582370758057 0.05 6.6629791259765625
2 2.0915799140930176 0.05 5.711661338806152
3 1.8938153982162476 0.05 4.682620048522949
4 1.614113688468933 0.05 3.4015889167785645
5 1.2362335920333862 0.05 1.9953296184539795
6 0.804553210735321 0.05 0.8451293706893921
7 0.5749146938323975 0.05 0.4315393567085266
8 0.4720848500728607 0.05 0.2909736633300781
9 0.3923160135746002 0.05 0.20094892382621765
10 0.33782246708869934 0.05 0.14900150895118713
11 0.2966693639755249 0.05 0.1149103194475174
12 0.26518747210502625 0.05 0.0918162614107132
13 0.2400779277086258 0.05 0.07525201141834259
14 0.21957330405712128 0.05 0.06294665485620499
15 0.20263998210430145 0.05 0.053612224757671356
16 0.18850882351398468 0.05 0.04639561474323273
17 0.1765245646238327 0.05 0.04068402200937271
18 0.16618794202804565 0.05 0.03605891391634941
19 0.1571163535118103 0.05 0.0322297066450119
20 0.14906983077526093 0.05 0.02901303395628929
21 0.1418335884809494 0.05 0.02626466006040573
22 0.13528332114219666 0.05 0.023894725367426872
23 0.1293189823627472 0.05 0.021834243088960648
24 0.12385246157646179 0.05 0.020027320832014084
25 0.11884113401174545 0.05 0.018439415842294693
26 0.11421360820531845 0.05 0.017031360417604446
27 0.1099420115351677 0.05 0.015781231224536896
28 0.10597425699234009 0.05 0.014662712812423706
29 0.10228794068098068 0.05 0.0136603694409132
30 0.098838672041893 0.05 0.012754617258906364
31 0.09562171995639801 0.05 0.011937865056097507
32 0.09259425848722458 0.05 0.011193906888365746
33 0.0897429808974266 0.05 0.010515128262341022
34 0.08704390376806259 0.05 0.009892141446471214
35 0.08449830114841461 0.05 0.009322009980678558
36 0.08208143711090088 0.05 0.008796369656920433
37 0.07977667450904846 0.05 0.008309319615364075
38 0.07758104056119919 0.05 0.007858230732381344
39 0.07549261301755905 0.05 0.007440849207341671
40 0.073488749563694 0.05 0.007051073480397463
41 0.07157022505998611 0.05 0.006687723100185394
42 0.06973126530647278 0.05 0.006348463706672192
43 0.06796009838581085 0.05 0.006030058488249779
44 0.0662626400589943 0.05 0.005732591263949871
45 0.06462738662958145 0.05 0.005453142337501049
46 0.06305669248104095 0.05 0.005191297270357609
47 0.061536211520433426 0.05 0.00494396174326539
48 0.06007036194205284 0.05 0.0047112274914979935
49 0.05865881219506264 0.05 0.004492416512221098
50 0.057295288890600204 0.05 0.004285992588847876
51 0.05597100034356117 0.05 0.00409015454351902
52 0.05469568446278572 0.05 0.0039058872498571873
53 0.053459715098142624 0.05 0.003731357865035534
54 0.052261993288993835 0.05 0.0035660341382026672
55 0.051099419593811035 0.05 0.003409145399928093
56 0.04997960478067398 0.05 0.003261363599449396
57 0.048884645104408264 0.05 0.0031200279481709003
58 0.04783182591199875 0.05 0.002987084211781621
59 0.04680092632770538 0.05 0.002859713276848197
60 0.04580898955464363 0.05 0.0027397756930440664
61 0.04484027251601219 0.05 0.0026251254603266716
62 0.04390313848853111 0.05 0.002516545122489333
63 0.04299371689558029 0.05 0.0024133683182299137
64 0.04210600629448891 0.05 0.0023147370666265488
65 0.041245508939027786 0.05 0.0022210939787328243
66 0.040406033396720886 0.05 0.0021316013298928738
67 0.039593640714883804 0.05 0.002046748762950301
68 0.03880714252591133 0.05 0.0019662417471408844
69 0.038033973425626755 0.05 0.0018886737525463104
70 0.03728744760155678 0.05 0.001815260504372418
71 0.036554042249917984 0.05 0.0017445539124310017
72 0.03584527224302292 0.05 0.0016775574767962098
73 0.03515748307108879 0.05 0.0016137979691848159
74 0.0344831608235836 0.05 0.0015524858608841896
75 0.0338326133787632 0.05 0.0014944612048566341
76 0.033193767070770264 0.05 0.0014385555405169725
77 0.03257023170590401 0.05 0.0013850175309926271
78 0.0319671593606472 0.05 0.0013342024758458138
79 0.03137670457363129 0.05 0.0012853703228756785
80 0.030802886933088303 0.05 0.001238786382600665
81 0.03024127334356308 0.05 0.001194025855511427
82 0.029695263132452965 0.05 0.0011512984056025743
83 0.02916320040822029 0.05 0.0011104114819318056
84 0.028640178963541985 0.05 0.001070939702913165
85 0.028136104345321655 0.05 0.0010335738770663738
86 0.027639035135507584 0.05 0.0009973769774660468
87 0.027155349031090736 0.05 0.0009627740364521742
88 0.026681184768676758 0.05 0.0009294451447203755
89 0.026222120970487595 0.05 0.0008977371035143733
90 0.025772057473659515 0.05 0.0008671850664541125
91 0.025331303477287292 0.05 0.0008377773920074105
92 0.024904390797019005 0.05 0.0008097770623862743
93 0.024483537301421165 0.05 0.0007826397195458412
94 0.024077437818050385 0.05 0.0007568923756480217
95 0.02367815002799034 0.05 0.0007319966098293662
96 0.02328302711248398 0.05 0.0007077705231495202
97 0.022903917357325554 0.05 0.0006849094061180949
98 0.02253134921193123 0.05 0.0006628084229305387
99 0.02216428704559803 0.05 0.00064138846937567
tuning, 0, 0.0007267841137945652
tuning, 1, 0.0007267841137945652
tuning, 2, 0.0007172483019530773
tuning, 3, 0.0007003624923527241
tuning, 4, 0.0006783193675801158
tuning, 5, 0.0006535686552524567
tuning, 6, 0.0006291238823905587
tuning, 7, 0.0006071293028071523
tuning, 8, 0.0005879413802176714
tuning, 9, 0.0005701200570911169
tuning, 10, 0.0005536775570362806
tuning, 11, 0.0005375286564230919
tuning, 12, 0.0005205940688028932
tuning, 13, 0.0005036657676100731
tuning, 14, 0.0004872102290391922
tuning, 15, 0.00047129561426118016
tuning, 16, 0.00045618810690939426
tuning, 17, 0.00044162943959236145
tuning, 18, 0.00042778588249348104
tuning, 19, 0.0004150425083935261
tuning, 20, 0.0004036641330458224
tuning, 21, 0.0003931752871721983
tuning, 22, 0.0003836429677903652
tuning, 23, 0.0003750859177671373
tuning, 24, 0.00036669266410171986
tuning, 25, 0.0003583558718673885
tuning, 26, 0.0003505873028188944
tuning, 27, 0.00034329877234995365
tuning, 28, 0.0003364392905496061
tuning, 29, 0.00032991013722494245
tuning, 30, 0.000323860818753019
tuning, 31, 0.0003181547508575022
tuning, 32, 0.00031245616264641285
tuning, 33, 0.00030656857416033745
tuning, 34, 0.00030098954448476434
tuning, 35, 0.0002957630204036832
tuning, 36, 0.00029078565421514213
tuning, 37, 0.0002859674859791994
tuning, 38, 0.00028149515856057405
tuning, 39, 0.00027736322954297066
tuning, 40, 0.00027310336008667946
tuning, 41, 0.00026904180413112044
tuning, 42, 0.0002651680842973292
tuning, 43, 0.00026125076692551374
tuning, 44, 0.0002576270780991763
tuning, 45, 0.00025425743660889566
tuning, 46, 0.0002509126206859946
tuning, 47, 0.00024767895229160786
tuning, 48, 0.00024453140213154256
tuning, 49, 0.00024142934125848114
tuning, 50, 0.00023846226395107806
tuning, 51, 0.00023567034804727882
tuning, 52, 0.0002329892449779436
tuning, 53, 0.00023033205070532858
tuning, 54, 0.00022778331185691059
tuning, 55, 0.00022518934565596282
tuning, 56, 0.00022272281057666987
tuning, 57, 0.00022036684094928205
tuning, 58, 0.00021802533592563123
tuning, 59, 0.00021578173618763685
tuning, 60, 0.0002135563117917627
tuning, 61, 0.00021141921752132475
tuning, 62, 0.00020936787768732756
tuning, 63, 0.00020733088604174554
tuning, 64, 0.00020537059754133224
tuning, 65, 0.0002034315257333219
tuning, 66, 0.0002015899372054264
tuning, 67, 0.0001997604122152552
tuning, 68, 0.0001979659718926996
tuning, 69, 0.00019620322564151138
tuning, 70, 0.00019452592823654413
tuning, 71, 0.0001928429992403835
tuning, 72, 0.00019119374337606132
tuning, 73, 0.00018955224368255585
tuning, 74, 0.00018798849487211555
tuning, 75, 0.000186409946763888
tuning, 76, 0.00018488998466636986
tuning, 77, 0.00018339102098252624
tuning, 78, 0.0001819398021325469
tuning, 79, 0.00018054233805742115
tuning, 80, 0.00017914021736942232
tuning, 81, 0.00017774777370505035
tuning, 82, 0.0001763449254212901
tuning, 83, 0.00017504887364339083
tuning, 84, 0.00017374013259541243
tuning, 85, 0.00017244780610781163
tuning, 86, 0.00017119268886744976
tuning, 87, 0.00016999556100927293
tuning, 88, 0.0001687778130872175
tuning, 89, 0.00016758624406065792
tuning, 90, 0.00016647845041006804
tuning, 91, 0.0001653641666052863
tuning, 92, 0.00016428610251750797
tuning, 93, 0.00016319408314302564
tuning, 94, 0.0001621501869522035
tuning, 95, 0.0001611647312529385
tuning, 96, 0.00016014448192436248
tuning, 97, 0.00015918113058432937
tuning, 98, 0.00015820081171113998
tuning, 99, 0.00015728003927506506
tuning, 100, 0.00015638887998647988
tuning, 101, 0.00015547149814665318
tuning, 102, 0.00015457530389539897
tuning, 103, 0.00015370731125585735
tuning, 104, 0.00015285704284906387
tuning, 105, 0.0001520219084341079
tuning, 106, 0.00015121707110665739
tuning, 107, 0.0001504147076047957
tuning, 108, 0.00014963909052312374
tuning, 109, 0.00014886641292832792
tuning, 110, 0.0001481262152083218
tuning, 111, 0.00014740979531779885
tuning, 112, 0.00014671555254608393
tuning, 113, 0.00014599502901546657
tuning, 114, 0.00014532642671838403
tuning, 115, 0.00014467182336375117
tuning, 116, 0.00014401481894310564
tuning, 117, 0.0001433835132047534
tuning, 118, 0.00014277509762905538
tuning, 119, 0.00014217913849279284
tuning, 120, 0.00014158325211610645
tuning, 121, 0.00014101792476139963
tuning, 122, 0.0001404496724717319
tuning, 123, 0.000139930474688299
tuning, 124, 0.00013939842756371945
tuning, 125, 0.00013890437548980117
tuning, 126, 0.00013839836174156517
tuning, 127, 0.00013789912918582559
tuning, 128, 0.0001374358544126153
tuning, 129, 0.0001369852980133146
tuning, 130, 0.00013652171764988452
tuning, 131, 0.0001361077738692984
tuning, 132, 0.0001356713764835149
tuning, 133, 0.00013526700786314905
tuning, 134, 0.00013486467651091516
tuning, 135, 0.00013448280515149236
tuning, 136, 0.00013409869279712439
tuning, 137, 0.00013374080299399793
tuning, 138, 0.00013339167344383895
tuning, 139, 0.00013302484876476228
tuning, 140, 0.00013272608339320868
tuning, 141, 0.00013240348198451102
tuning, 142, 0.0001320824376307428
tuning, 143, 0.00013179186498746276
tuning, 144, 0.00013150529412087053
tuning, 145, 0.0001312170352321118
tuning, 146, 0.00013094799942336977
tuning, 147, 0.0001306881895288825
tuning, 148, 0.00013043929357081652
tuning, 149, 0.00013018312165513635
tuning, 150, 0.00012995929864700884
tuning, 151, 0.00012973317643627524
tuning, 152, 0.00012953081750310957
tuning, 153, 0.0001293082896154374
tuning, 154, 0.0001291279768338427
tuning, 155, 0.00012889817298855633
tuning, 156, 0.00012874024105258286
tuning, 157, 0.00012856493412982672
tuning, 158, 0.00012839205737691373
tuning, 159, 0.00012822177086491138
tuning, 160, 0.00012807016901206225
tuning, 161, 0.00012792993220500648
tuning, 162, 0.0001277988194487989
tuning, 163, 0.00012767474981956184
tuning, 164, 0.00012754881754517555
tuning, 165, 0.00012740891543217003
tuning, 166, 0.0001273138914257288
tuning, 167, 0.00012720107042696327
tuning, 168, 0.0001271046494366601
tuning, 169, 0.00012701438390649855
tuning, 170, 0.00012689840514212847
tuning, 171, 0.00012684719695243984
tuning, 172, 0.00012674582831095904
tuning, 173, 0.00012667899136431515
tuning, 174, 0.00012660655193030834
tuning, 175, 0.00012655228783842176
tuning, 176, 0.00012649016571231186
tuning, 177, 0.0001264280581381172
tuning, 178, 0.00012638034240808338
tuning, 179, 0.0001263478770852089
tuning, 180, 0.0001262945879716426
tuning, 181, 0.0001262603182112798
tuning, 182, 0.00012623296061065048
tuning, 183, 0.0001262169098481536
tuning, 184, 0.00012617403990589082
tuning, 185, 0.0001261542201973498
tuning, 186, 0.00012612013961188495
tuning, 187, 0.00012609950499609113
tuning, 188, 0.00012608473480213434
tuning, 189, 0.0001260640419786796
tuning, 190, 0.0001260644057765603
tuning, 191, 0.00012606118980329484
tuning, 192, 0.00012604656512849033
tuning, 193, 0.00012603719369508326
tuning, 194, 0.00012602201604750007
tuning, 195, 0.00012604438234120607
tuning, 196, 0.00012603448703885078
tuning, 197, 0.00012602630886249244
tuning, 198, 0.00012602194328792393
tuning, 199, 0.00012602689093910158

 10%|███████████████████████████▌                                                                                                                                                                                                                                                       | 1/10 [02:00<18:06, 120.74s/it]
0, 0.1123598963022232
1, 0.1123598963022232
2, 0.10478769987821579
3, 0.09046897292137146
4, 0.07124534249305725
5, 0.050200290977954865
6, 0.031469427049160004
7, 0.020330242812633514
8, 0.014868381433188915
9, 0.012927623465657234
10, 0.012791013345122337
11, 0.01334223523736
12, 0.013981498777866364
13, 0.014438766986131668
14, 0.014627265743911266
15, 0.014555960893630981
16, 0.014270802959799767
17, 0.013828958384692669
18, 0.013285065069794655
19, 0.012679718434810638
20, 0.01204252801835537
21, 0.011394458822906017
22, 0.010749585926532745
23, 0.010116375051438808
24, 0.009504441171884537
25, 0.008919456973671913
26, 0.008368569426238537
27, 0.007856689393520355
28, 0.007387927733361721
29, 0.006962879560887814
30, 0.0065818065777421
31, 0.006242251954972744
32, 0.005939218681305647
33, 0.005667956080287695
34, 0.005423553287982941
35, 0.005200699437409639
36, 0.004995204042643309
37, 0.004803644493222237
38, 0.004623844753950834
39, 0.0044545698910951614
40, 0.004295028746128082
41, 0.004144393838942051
42, 0.004002342466264963
43, 0.0038687284104526043
44, 0.003743695095181465
45, 0.003627052530646324
46, 0.0035189155023545027
47, 0.0034188933204859495
48, 0.0033265212550759315
49, 0.0032415403984487057
50, 0.0031636524945497513
51, 0.003092166967689991
52, 0.00302669289521873
53, 0.0029665313195437193
54, 0.0029112796764820814
55, 0.0028603184036910534
56, 0.0028132363222539425
57, 0.0027695423923432827
58, 0.0027289658319205046
59, 0.002691177185624838
60, 0.002655947580933571
61, 0.0026231396477669477
62, 0.0025925012305378914
63, 0.0025639464147388935
64, 0.0025372523814439774
65, 0.0025124100502580404
66, 0.0024892338551580906
67, 0.002467611338943243
68, 0.002447478473186493
69, 0.0024287342093884945
70, 0.0024112979881465435
71, 0.0023951767943799496
72, 0.002380215795710683
73, 0.00236640777438879
74, 0.002353634685277939
75, 0.002341912128031254
76, 0.002331092255190015
77, 0.002321181818842888
78, 0.0023121596314013004
79, 0.0023038953077048063
80, 0.002296398626640439
81, 0.0022895694710314274
82, 0.0022834795527160168
83, 0.002277992432937026
84, 0.0022730976343154907
85, 0.0022687609307467937
86, 0.0022649611346423626
87, 0.002261652611196041
88, 0.0022587664425373077
89, 0.002256297040730715
90, 0.0022542420774698257
91, 0.002252514474093914
92, 0.002251154277473688
93, 0.0022500772029161453
94, 0.0022492199204862118
95, 0.002248590812087059
96, 0.002248160308226943
97, 0.0022478641476482153
98, 0.0022477228194475174
99, 0.0022476473823189735
0 2.717363119125366 0.05 8.139793395996094
1 2.555792808532715 0.05 7.2006096839904785
2 2.3845531940460205 0.05 6.2680439949035645
3 2.19071888923645 0.05 5.290433883666992
4 1.9437451362609863 0.05 4.164824485778809
5 1.579088807106018 0.05 2.7487239837646484
6 1.176587462425232 0.05 1.526041865348816
7 0.8704553842544556 0.05 0.8352395296096802
8 0.7088050842285156 0.05 0.5538238286972046
9 0.5970215797424316 0.05 0.39291447401046753
10 0.5068400502204895 0.05 0.2831782102584839
11 0.43464845418930054 0.05 0.20825444161891937
12 0.3818068206310272 0.05 0.1606961041688919
13 0.3411398231983185 0.05 0.12828704714775085
14 0.30845221877098083 0.05 0.10488027334213257
15 0.28151199221611023 0.05 0.08735984563827515
16 0.2589612305164337 0.05 0.07392434030771255
17 0.2397971898317337 0.05 0.06338787078857422
18 0.22331467270851135 0.05 0.05497339367866516
19 0.20899973809719086 0.05 0.04815146327018738
20 0.19649362564086914 0.05 0.04256130009889603
21 0.1855059117078781 0.05 0.037934429943561554
22 0.1757856011390686 0.05 0.03406314179301262
23 0.16714346408843994 0.05 0.030796175822615623
24 0.1593986600637436 0.05 0.028008338063955307
25 0.15240144729614258 0.05 0.025603312999010086
26 0.14604350924491882 0.05 0.023511618375778198
27 0.14023898541927338 0.05 0.021679814904928207
28 0.13489940762519836 0.05 0.020060330629348755
29 0.1299499124288559 0.05 0.018615297973155975
30 0.12536489963531494 0.05 0.017324868589639664
31 0.12108448147773743 0.05 0.016161995008587837
32 0.11707939207553864 0.05 0.015110503882169724
33 0.11331472545862198 0.05 0.014154374599456787
34 0.10977796465158463 0.05 0.013284595683217049
35 0.10644339770078659 0.05 0.012489799410104752
36 0.10328707844018936 0.05 0.01176007091999054
37 0.10030514746904373 0.05 0.0110908392816782
38 0.09747035056352615 0.05 0.010472806170582771
39 0.09478481858968735 0.05 0.009903655387461185
40 0.09223149716854095 0.05 0.009377270936965942
41 0.08980373293161392 0.05 0.008890103548765182
42 0.08748284727334976 0.05 0.008436528965830803
43 0.0852762833237648 0.05 0.008016310632228851
44 0.08316651731729507 0.05 0.0076245637610554695
45 0.08114877343177795 0.05 0.0072590867057442665
46 0.07921738177537918 0.05 0.0069176554679870605
47 0.07737620174884796 0.05 0.006599831394851208
48 0.07559996098279953 0.05 0.0063002994284033775
49 0.07390037924051285 0.05 0.006020206026732922
50 0.07226698845624924 0.05 0.005757022649049759
