
  0%|                                                                                                                                                                                                                                                                                             | 0/1 [00:00<?, ?it/s]
0, 0.1364392638206482
1, 0.1364392638206482
2, 0.12979251146316528
3, 0.11694806814193726
4, 0.09893612563610077
5, 0.07756024599075317
6, 0.05549614876508713
7, 0.03877322003245354
8, 0.02704548090696335
9, 0.019489748403429985
10, 0.01503818854689598
11, 0.012640578672289848
12, 0.011447634547948837
13, 0.010865207761526108
14, 0.010523684322834015
15, 0.01021551713347435
16, 0.009841310791671276
17, 0.009367046877741814
18, 0.008805054239928722
19, 0.00818092655390501
20, 0.007529838941991329
21, 0.006880350410938263
22, 0.006261942908167839
23, 0.0056970263831317425
24, 0.00520093459635973
25, 0.004777840804308653
26, 0.00442539993673563
27, 0.004136811941862106
28, 0.003902134485542774
29, 0.0037089455872774124
30, 0.0035452223382890224
31, 0.0034007318317890167
32, 0.0032658844720572233
33, 0.003134543774649501
34, 0.00300303241237998
35, 0.002868836745619774
36, 0.002732089487835765
37, 0.0025934549048542976
38, 0.0024547623470425606
39, 0.0023181200958788395
40, 0.0021859111730009317
41, 0.0020598419941961765
42, 0.0019416764844208956
43, 0.0018323020776733756
44, 0.0017320907209068537
45, 0.0016413353150710464
46, 0.001559508964419365
47, 0.0014860493829473853
48, 0.0014202874153852463
49, 0.0013612419134005904
50, 0.0013079358031973243
51, 0.001259668031707406
52, 0.0012156055308878422
53, 0.0011752297868952155
54, 0.0011379164643585682
55, 0.0011033809278160334
56, 0.001071292906999588
57, 0.0010414393618702888
58, 0.001013576751574874
59, 0.000987683655694127
60, 0.0009635958704166114
61, 0.0009412899962626398
62, 0.0009204854140989482
63, 0.0009013413218781352
64, 0.0008835959015414119
65, 0.000867265451233834
66, 0.0008522137068212032
67, 0.0008383310632780194
68, 0.0008256108267232776
69, 0.0008138678967952728
70, 0.0008030878379940987
71, 0.0007932336302474141
72, 0.0007841406622901559
73, 0.0007758493302389979
74, 0.0007682368159294128
75, 0.0007612830959260464
76, 0.0007549065630882978
77, 0.0007491203723475337
78, 0.0007438517059199512
79, 0.000739063136279583
80, 0.0007347445352934301
81, 0.0007308171479962766
82, 0.0007273373194038868
83, 0.0007242354331538081
84, 0.0007214429206214845
85, 0.00071896449662745
86, 0.0007168101146817207
87, 0.0007149618468247354
88, 0.0007133184699341655
89, 0.0007119969232007861
90, 0.0007108276477083564
91, 0.000709880143404007
92, 0.0007091136067174375
93, 0.0007084926473908126
94, 0.0007080180803313851
95, 0.0007076500332914293
96, 0.0007073939777910709
97, 0.0007072603330016136
98, 0.0007071838481351733
99, 0.0007071513682603836
0 2.4191040992736816 0.05 7.640512466430664
1 2.259054183959961 0.05 6.662951946258545
2 2.0915772914886475 0.05 5.71164608001709
3 1.8938106298446655 0.05 4.682594299316406
4 1.614119291305542 0.05 3.401610851287842
5 1.2362258434295654 0.05 1.9953038692474365
6 0.8045544624328613 0.05 0.845131516456604
7 0.5748971104621887 0.05 0.43151283264160156
8 0.4720815122127533 0.05 0.2909694314002991
9 0.39231932163238525 0.05 0.2009522020816803
10 0.33782532811164856 0.05 0.14900396764278412
11 0.2966870665550232 0.05 0.11492398381233215
12 0.26517435908317566 0.05 0.09180714190006256
13 0.24007605016231537 0.05 0.0752507895231247
14 0.21955808997154236 0.05 0.0629379004240036
15 0.20263603329658508 0.05 0.05361011251807213
16 0.1885070502758026 0.05 0.04639472812414169
17 0.17652621865272522 0.05 0.040684763342142105
18 0.1661880761384964 0.05 0.036058951169252396
19 0.15712246298789978 0.05 0.03223220258951187
20 0.1490715891122818 0.05 0.029013708233833313
21 0.1418328583240509 0.05 0.026264376938343048
22 0.13528013229370117 0.05 0.02389359474182129
23 0.1293133944272995 0.05 0.021832343190908432
24 0.1238546147942543 0.05 0.02002800814807415
25 0.11883778125047684 0.05 0.018438365310430527
26 0.11421135067939758 0.05 0.017030678689479828
27 0.10994037240743637 0.05 0.01578075811266899
28 0.10597708821296692 0.05 0.014663491398096085
29 0.10228968411684036 0.05 0.01366083137691021
30 0.09884553402662277 0.05 0.012756383046507835
31 0.09561885893344879 0.05 0.011937147006392479
32 0.09258779883384705 0.05 0.011192340403795242
33 0.08974242210388184 0.05 0.010514993220567703
34 0.08704564720392227 0.05 0.009892533533275127
35 0.0845021978020668 0.05 0.00932286400347948
36 0.08207577466964722 0.05 0.008795153349637985
37 0.07977912575006485 0.05 0.008309826254844666
38 0.07757922261953354 0.05 0.007857860997319221
39 0.0754915252327919 0.05 0.007440632209181786
40 0.07348529994487762 0.05 0.007050409913063049
41 0.07156772911548615 0.05 0.006687254644930363
42 0.06972793489694595 0.05 0.006347855553030968
43 0.06796279549598694 0.05 0.006030535791069269
44 0.06626269221305847 0.05 0.005732598714530468
45 0.06462682038545609 0.05 0.005453042685985565
46 0.06305764615535736 0.05 0.00519145280122757
47 0.06154003366827965 0.05 0.0049445740878582
48 0.0600699782371521 0.05 0.004711165092885494
49 0.0586603619158268 0.05 0.00449265306815505
50 0.05729345977306366 0.05 0.004285717383027077
51 0.05597250536084175 0.05 0.00409037247300148
52 0.054693009704351425 0.05 0.0039055035449564457
53 0.05345451831817627 0.05 0.003730630502104759
54 0.05225735902786255 0.05 0.0035654003731906414
55 0.051102109253406525 0.05 0.0034095027949661016
56 0.049974795430898666 0.05 0.0032607349567115307
57 0.048888660967350006 0.05 0.0031205397099256516
58 0.04782950133085251 0.05 0.0029867927078157663
59 0.04680194333195686 0.05 0.0028598362114280462
60 0.04580433666706085 0.05 0.0027392180636525154
61 0.04484386369585991 0.05 0.002625545021146536
62 0.043903447687625885 0.05 0.0025165793485939503
63 0.042989231646060944 0.05 0.002412863541394472
64 0.042105741798877716 0.05 0.002314707264304161
65 0.04124562069773674 0.05 0.0022211046889424324
66 0.04040767252445221 0.05 0.0021317736245691776
67 0.039597515016794205 0.05 0.0020471480675041676
68 0.038805946707725525 0.05 0.0019661197438836098
69 0.03803412988781929 0.05 0.0018886886537075043
70 0.03728784620761871 0.05 0.0018152982229366899
71 0.03655584156513214 0.05 0.001744725275784731
72 0.03584864363074303 0.05 0.0016778723802417517
73 0.035159576684236526 0.05 0.0016139894723892212
74 0.03448614105582237 0.05 0.0015527538489550352
75 0.03383222967386246 0.05 0.001494426978752017
76 0.03319063410162926 0.05 0.0014382833614945412
77 0.03257135674357414 0.05 0.0013851126423105597
78 0.03196565806865692 0.05 0.0013340766308829188
79 0.03137832507491112 0.05 0.0012855024542659521
80 0.030801132321357727 0.05 0.0012386448215693235
81 0.030242374166846275 0.05 0.0011941123520955443
82 0.029695311561226845 0.05 0.0011513016652315855
83 0.029162166640162468 0.05 0.0011103322030976415
84 0.02864224463701248 0.05 0.001071093836799264
85 0.028135253116488457 0.05 0.0010335110127925873
86 0.027636442333459854 0.05 0.0009971894323825836
87 0.027155347168445587 0.05 0.000962773512583226
88 0.02668088860809803 0.05 0.0009294241899624467
89 0.026225030422210693 0.05 0.0008979359990917146
90 0.025770658627152443 0.05 0.0008670904790051281
91 0.025333059951663017 0.05 0.0008378932834602892
92 0.024903789162635803 0.05 0.0008097374811768532
93 0.024486009031534195 0.05 0.0007827975205145776
94 0.024075480177998543 0.05 0.0007567689754068851
95 0.02367878146469593 0.05 0.0007320354925468564
96 0.023287255316972733 0.05 0.0007080273353494704
97 0.022905798628926277 0.05 0.0006850216304883361
98 0.02252783253788948 0.05 0.0006626012036576867
99 0.022165026515722275 0.05 0.0006414309609681368

