
  0%|                                                                                                                                                                                                                                                                                            | 0/10 [00:00<?, ?it/s]
0, 0.1364392638206482
1, 0.1364392638206482
2, 0.12979239225387573
3, 0.11694805324077606
4, 0.09893608093261719
5, 0.07756036520004272
6, 0.055496178567409515
7, 0.03876928240060806
8, 0.027032438665628433
9, 0.019467737525701523
10, 0.015012952499091625
11, 0.012620862573385239
12, 0.011441505514085293
13, 0.010877291671931744
14, 0.010553943924605846
15, 0.010262301191687584
16, 0.009897957555949688
17, 0.009429010562598705
18, 0.008865742944180965
19, 0.008235929533839226
20, 0.007575333118438721
21, 0.006916103418916464
22, 0.0062905577942729
23, 0.005725394003093243
24, 0.0052347793243825436
25, 0.00482419366016984
26, 0.004490684252232313
27, 0.004225814715027809
28, 0.004016617313027382
29, 0.0038479366339743137
30, 0.0037047192454338074
31, 0.0035735699348151684
32, 0.003443904919549823
33, 0.0033087495248764753
34, 0.003164480207487941
35, 0.0030105530750006437
36, 0.0028485802467912436
37, 0.002682081889361143
38, 0.0025149239227175713
39, 0.0023515529464930296
40, 0.0021959329023957253
41, 0.0020512938499450684
42, 0.0019197271903976798
43, 0.001802172977477312
44, 0.0016985449474304914
45, 0.0016078727785497904
46, 0.0015283593675121665
47, 0.0014581573195755482
48, 0.0013950611464679241
49, 0.001337043009698391
50, 0.0012827424798160791
51, 0.0012310277670621872
52, 0.0011814378667622805
53, 0.001133873825892806
54, 0.0010883779032155871
55, 0.0010452050482854247
56, 0.0010046761017292738
57, 0.0009669257560744882
58, 0.0009319448145106435
59, 0.0008995581301860511
60, 0.0008694680291227996
61, 0.0008413196774199605
62, 0.0008148247143253684
63, 0.0007896105526015162
64, 0.0007654549553990364
65, 0.0007422131020575762
66, 0.0007198170642368495
67, 0.0006983468192629516
68, 0.000677894800901413
69, 0.0006585490773431957
70, 0.0006403609877452254
71, 0.000623430940322578
72, 0.0006077032303437591
73, 0.0005931277410127223
74, 0.0005795774632133543
75, 0.0005669355159625411
76, 0.00055503542535007
77, 0.0005438313237391412
78, 0.0005331817083060741
79, 0.0005230079405009747
80, 0.0005132512305863202
81, 0.0005039129173383117
82, 0.0004949744325131178
83, 0.00048642439651302993
84, 0.0004782448522746563
85, 0.0004704498569481075
86, 0.00046301944530569017
87, 0.00045588857028633356
88, 0.0004490695137064904
89, 0.000442548276623711
90, 0.000436293485108763
91, 0.00043028543586842716
92, 0.00042447930900380015
93, 0.00041888467967510223
94, 0.0004134786722715944
95, 0.00040822834125719965
96, 0.0004031420685350895
97, 0.0003982041962444782
98, 0.00039341067895293236
99, 0.0003887404454872012
100, 0.00038422527723014355
101, 0.00037984244409017265
102, 0.0003755809157155454
103, 0.00037146167596802115
104, 0.0003674929903354496
105, 0.00036361365346238017
106, 0.00035984546411782503
107, 0.0003561760240700096
108, 0.00035257788840681314
109, 0.0003490772796794772
110, 0.00034562579821795225
111, 0.00034226637217216194
112, 0.00033900406560860574
113, 0.0003357871319167316
114, 0.00033264755620621145
115, 0.00032957986695691943
116, 0.00032658534473739564
117, 0.0003236508637201041
118, 0.0003207865811418742
119, 0.0003179775085300207
120, 0.0003152080171275884
121, 0.0003124998474959284
122, 0.000309848808683455
123, 0.00030723330564796925
124, 0.00030467132455669343
125, 0.00030216583400033414
126, 0.0002996992552652955
127, 0.00029728596564382315
128, 0.00029492442263290286
129, 0.00029259893926791847
130, 0.0002903112326748669
131, 0.00028806980117224157
132, 0.0002858612278942019
133, 0.00028369363280944526
134, 0.0002815666375681758
135, 0.0002794638858176768
136, 0.0002774096210487187
137, 0.00027537840651348233
138, 0.0002733916917350143
139, 0.00027143803890794516
140, 0.00026951736072078347
141, 0.000267626135610044
142, 0.0002657663426361978
143, 0.0002639368176460266
144, 0.00026213281671516597
145, 0.0002603597822599113
146, 0.0002586243790574372
147, 0.00025691435439512134
148, 0.0002552333171479404
149, 0.0002535729145165533
150, 0.0002519377158023417
151, 0.0002503229770809412
152, 0.00024873827351257205
153, 0.0002471716143190861
154, 0.0002456204383634031
155, 0.00024409126490354538
156, 0.00024258223129436374
157, 0.0002410958259133622
158, 0.00023961227270774543
159, 0.00023816977045498788
160, 0.0002367244742345065
161, 0.00023529233294539154
162, 0.00023387998226098716
163, 0.00023247554781846702
164, 0.00023108534514904022
165, 0.00022970384452492
166, 0.00022833768161945045
167, 0.00022697425447404385
168, 0.00022561519290320575
169, 0.00022427889052778482
170, 0.00022293897927738726
171, 0.00022161492961458862
172, 0.0002203103358624503
173, 0.00021901137370150536
174, 0.00021775095956400037
175, 0.00021648993424605578
176, 0.00021525536430999637
177, 0.0002140317519661039
178, 0.0002128208288922906
179, 0.00021161562472116202
180, 0.00021042663138359785
181, 0.00020924967247992754
182, 0.0002080882404698059
183, 0.0002069521287921816
184, 0.0002058316022157669
185, 0.00020472449250519276
186, 0.00020363413204904646
187, 0.00020256382413208485
188, 0.00020149361807852983
189, 0.00020045533892698586
190, 0.000199417321709916
191, 0.00019838582375086844
192, 0.00019737605180125684
193, 0.00019637499644886702
194, 0.0001953924511326477
195, 0.00019442636403255165
196, 0.00019346275075804442
197, 0.00019250558398198336
198, 0.00019158326904289424
199, 0.0001906477118609473
200, 0.0001897334586828947
201, 0.000188824997167103
202, 0.00018792515038512647
203, 0.00018705156981013715
204, 0.00018617877503857017
205, 0.00018532613466959447
206, 0.00018447845650371164
207, 0.00018363699200563133
208, 0.0001828136737458408
209, 0.00018199882470071316
210, 0.00018120025924872607
211, 0.00018040357099380344
212, 0.00017961514822673053
213, 0.00017884673434309661
214, 0.0001780735037755221
215, 0.0001773177064023912
216, 0.00017656522686593235
217, 0.0001758240396156907
218, 0.00017509770987089723
219, 0.0001743701723171398
220, 0.00017365503299515694
221, 0.0001729459036141634
222, 0.00017224611656274647
223, 0.00017154761007986963
224, 0.00017086061416193843
225, 0.00017018224752973765
226, 0.00016950443387031555
227, 0.00016883868374861777
228, 0.00016817136202007532
229, 0.00016752240480855107
230, 0.0001668705081101507
231, 0.00016622731345705688
232, 0.00016558279457967728
233, 0.00016494339797645807
234, 0.00016432811389677227
235, 0.00016370175580959767
236, 0.0001630845945328474
237, 0.00016246881568804383
238, 0.00016187124128919095
239, 0.00016126713308040053
240, 0.00016067124670371413
241, 0.00016008096281439066
242, 0.0001594881759956479
243, 0.00015890391659922898
244, 0.00015833233192097396
245, 0.00015775479550939053
246, 0.0001571828470332548
247, 0.00015660929784644395
248, 0.00015604597865603864
249, 0.00015548212104476988
250, 0.00015492166858166456
251, 0.00015436738613061607
252, 0.0001538090582471341
253, 0.00015326069842558354
254, 0.00015270132280420512
255, 0.0001521552330814302
256, 0.00015161000192165375
257, 0.00015105937200132757
258, 0.00015050647198222578
259, 0.0001499524078099057
260, 0.00014940142864361405
261, 0.00014885225391481072
262, 0.00014828532584942877
263, 0.0001477115147281438
264, 0.00014714560529682785
265, 0.00014656278654001653
266, 0.0001459921186324209
267, 0.00014540529809892178
268, 0.00014482601545751095
269, 0.00014427027781493962
270, 0.00014370429562404752
271, 0.00014313125575426966
272, 0.0001425681111868471
273, 0.0001420153130311519
274, 0.00014145293971523643
275, 0.00014090082549955696
276, 0.00014035927597433329
277, 0.00013982615200802684
278, 0.00013928729458712041
279, 0.00013875954027753323
280, 0.00013825045607518405
281, 0.00013775427942164242
282, 0.00013724889140576124
283, 0.0001367641962133348
284, 0.00013627432053908706
285, 0.00013579979713540524
286, 0.00013531855074688792
287, 0.00013485112867783755
288, 0.0001343828480457887
289, 0.00013392804248724133
290, 0.00013347638014238328
291, 0.0001330234663328156
292, 0.00013258191756904125
293, 0.00013213808415457606
294, 0.0001316960115218535
295, 0.0001312783861067146
296, 0.0001308511709794402
297, 0.0001304299948969856
298, 0.00013000905164517462
299, 0.00012959822197444737
300, 0.0001291912776650861
301, 0.0001287914055865258
302, 0.0001283862948184833
303, 0.0001279856078326702
304, 0.00012759272067341954
305, 0.0001272002700716257
306, 0.00012681313091889024
307, 0.00012642383808270097
308, 0.00012605107622221112
309, 0.00012567488010972738
310, 0.00012529674859251827
311, 0.0001249256602022797
312, 0.00012456063996069133
313, 0.00012419521226547658
314, 0.00012382767454255372
315, 0.00012346857693046331
316, 0.00012311930186115205
317, 0.00012276231427676976
318, 0.00012241126387380064
319, 0.00012206300743855536
320, 0.00012171561684226617
321, 0.00012137244630139321
322, 0.00012103158223908395
323, 0.00012069296644767746
324, 0.0001203532301587984
325, 0.00012001849245280027
326, 0.0001196964512928389
327, 0.00011936289956793189
328, 0.00011902621918125078
329, 0.00011870779417222366
330, 0.00011838303180411458
331, 0.00011806728434748948
332, 0.0001177452431875281
333, 0.0001174275967059657
334, 0.00011711593833751976
335, 0.00011679915769491345
336, 0.0001164953428087756
337, 0.0001161833934020251
338, 0.0001158791346824728
339, 0.0001155738063971512
340, 0.00011527967581059784
341, 0.0001149713498307392
342, 0.00011467367585282773
343, 0.00011438544606789947
344, 0.00011408096179366112
345, 0.00011380007344996557
346, 0.00011349927808623761
347, 0.00011321819329168648
348, 0.00011293152783764526
349, 0.00011264457134529948
350, 0.0001123646943597123
351, 0.00011208481009816751
352, 0.00011181172158103436
353, 0.00011152926890645176
354, 0.00011125377932330593
355, 0.00011097377864643931
356, 0.00011070724576711655
357, 0.00011043644917663187
358, 0.00011017125507351011
359, 0.0001099083456210792
360, 0.00010964216198772192
361, 0.00010937305341940373
362, 0.00010910868877544999
363, 0.00010885405936278403
364, 0.00010859640315175056
365, 0.00010833730630110949
366, 0.00010808951628860086
367, 0.00010783103061839938
368, 0.00010757872223621234
369, 0.00010733195813372731
370, 0.00010708010813686997
371, 0.00010682958964025602
372, 0.00010658259270712733
373, 0.00010633913188939914
374, 0.00010609485616441816
375, 0.0001058529524016194
376, 0.00010560745431575924
377, 0.00010537116031628102
378, 0.0001051240396918729
379, 0.00010489059786777943
380, 0.0001046507095452398
381, 0.00010442138591315597
382, 0.00010418399324407801
383, 0.00010395034041721374
384, 0.00010372154065407813
385, 0.00010348705109208822
386, 0.00010325520997866988
387, 0.00010302894952474162
388, 0.00010280033893650398
389, 0.00010257033864036202
390, 0.00010234355431748554
391, 0.00010212055349256843
392, 0.00010189367458224297
393, 0.00010166311403736472
394, 0.00010143876716028899
395, 0.0001012143911793828
396, 0.00010099281644215807
397, 0.0001007710670819506
398, 0.00010054851009044796
399, 0.0001003251745714806
400, 0.0001001017662929371
401, 9.988053352572024e-05
402, 9.96610033325851e-05
403, 9.943805343937129e-05
404, 9.92163986666128e-05
405, 9.899366705212742e-05
406, 9.878349374048412e-05
407, 9.856168617261574e-05
408, 9.834721277002245e-05
409, 9.812647476792336e-05
410, 9.790679905563593e-05
411, 9.77020463324152e-05
412, 9.749607124831527e-05
413, 9.728444274514914e-05
414, 9.707093704491854e-05
415, 9.68725944403559e-05
416, 9.666323603596538e-05
417, 9.645587851991877e-05
418, 9.625869279261678e-05
419, 9.605727245798334e-05
420, 9.585777297616005e-05
421, 9.56571166170761e-05
422, 9.546154615236446e-05
423, 9.526306530460715e-05
424, 9.506890637567267e-05
425, 9.487412171438336e-05
426, 9.468095959164202e-05
427, 9.448764467379078e-05
428, 9.430060163140297e-05
429, 9.411205246578902e-05
430, 9.391558705829084e-05
431, 9.372910426463932e-05
432, 9.354489156976342e-05
433, 9.335663344245404e-05
434, 9.31783506530337e-05
435, 9.299442172050476e-05
436, 9.281365055358037e-05
437, 9.262526873499155e-05
438, 9.244193643098697e-05
439, 9.226647671312094e-05
440, 9.208872506860644e-05
441, 9.190642595058307e-05
442, 9.172638965537772e-05
443, 9.155034786090255e-05
444, 9.137312008533627e-05
445, 9.120095637626946e-05
446, 9.10237868083641e-05
447, 9.084974590223283e-05
448, 9.067923383554444e-05
449, 9.050152584677562e-05
450, 9.033041715156287e-05
451, 9.016161493491381e-05
452, 8.998978591989726e-05
453, 8.981995051726699e-05
454, 8.965347660705447e-05
455, 8.94794866326265e-05
456, 8.930928015615791e-05
457, 8.914714999264106e-05
458, 8.89787042979151e-05
459, 8.88224967638962e-05
460, 8.865780546329916e-05
461, 8.848639845382422e-05
462, 8.832996536511928e-05
463, 8.816931222099811e-05
464, 8.800294017419219e-05
465, 8.784164674580097e-05
466, 8.768418047111481e-05
467, 8.752193389227614e-05
468, 8.736197196412832e-05
469, 8.720415644347668e-05
470, 8.704454376129434e-05
471, 8.689313835930079e-05
472, 8.673679258208722e-05
473, 8.658994920551777e-05
474, 8.643436012789607e-05
475, 8.62767337821424e-05
476, 8.612767851445824e-05
477, 8.597215492045507e-05
478, 8.582675218349323e-05
479, 8.567096665501595e-05
480, 8.55264370329678e-05
481, 8.538166002836078e-05
482, 8.522788266418502e-05
483, 8.507770689902827e-05
484, 8.493576751789078e-05
485, 8.47839837661013e-05
486, 8.463681297143921e-05
487, 8.449400775134563e-05
488, 8.435096242465079e-05
489, 8.420611266046762e-05
490, 8.406034612562507e-05
491, 8.392188465222716e-05
492, 8.378292841371149e-05
493, 8.36416584206745e-05
494, 8.350717689609155e-05
495, 8.336856262758374e-05
496, 8.323119254782796e-05
497, 8.309602708322927e-05
498, 8.29599448479712e-05
499, 8.282881753984839e-05
500, 8.269358659163117e-05
501, 8.256277942564338e-05
502, 8.242716285167262e-05
503, 8.230457024183124e-05
504, 8.217227878049016e-05
505, 8.20380519144237e-05
506, 8.191234519472346e-05
507, 8.177966810762882e-05
508, 8.166070620063692e-05
509, 8.153210364980623e-05
510, 8.140634599840268e-05
511, 8.128691115416586e-05
512, 8.116629760479555e-05
513, 8.103647269308567e-05
514, 8.091951895039529e-05
515, 8.079978579189628e-05
516, 8.067865564953536e-05
517, 8.056058140937239e-05
518, 8.043949492275715e-05
519, 8.032301411731169e-05
520, 8.020470704650506e-05
521, 8.009103476069868e-05
522, 7.997672219062224e-05
523, 7.986265700310469e-05
524, 7.975166954565793e-05
525, 7.963764073792845e-05
526, 7.952384476084262e-05
527, 7.94104635133408e-05
528, 7.930675928946584e-05
529, 7.919762720121071e-05
530, 7.908562838565558e-05
531, 7.897931209299713e-05
532, 7.886832463555038e-05
533, 7.876844028942287e-05
534, 7.866058149375021e-05
535, 7.855055446270853e-05
536, 7.844713400118053e-05
537, 7.835028372937813e-05
538, 7.82462302595377e-05
539, 7.814688433427364e-05
540, 7.804648339515552e-05
541, 7.79415131546557e-05
542, 7.784718036418781e-05
543, 7.774605182930827e-05
544, 7.764554175082594e-05
545, 7.75530788814649e-05
546, 7.746118353679776e-05
547, 7.736544648651034e-05
548, 7.727241609245539e-05
549, 7.71769555285573e-05
550, 7.70787155488506e-05
551, 7.699005072936416e-05
552, 7.689654012210667e-05
553, 7.680195267312229e-05
554, 7.671653293073177e-05
555, 7.662952702958137e-05
556, 7.653715874766931e-05
557, 7.644451397936791e-05
558, 7.636206282768399e-05
559, 7.627618469996378e-05
560, 7.618898234795779e-05
561, 7.60984476073645e-05
562, 7.601088145747781e-05
563, 7.592791371280327e-05
564, 7.584744889754802e-05
565, 7.576868665637448e-05
566, 7.568328874185681e-05
567, 7.560080848634243e-05
568, 7.552160968771204e-05
569, 7.54457651055418e-05
570, 7.536762132076547e-05
571, 7.528711284976453e-05
572, 7.520736107835546e-05
573, 7.51274565118365e-05
574, 7.505180838052183e-05
575, 7.498025661334395e-05
576, 7.490167627111077e-05
577, 7.482095679733902e-05
578, 7.474404264939949e-05
579, 7.468053081538528e-05
580, 7.46032310416922e-05
581, 7.453025318682194e-05
582, 7.446204836014658e-05
583, 7.438699685735628e-05
584, 7.431877020280808e-05
585, 7.424416253343225e-05
586, 7.416851440211758e-05
587, 7.410778198391199e-05
588, 7.403850031550974e-05
589, 7.396978617180139e-05
590, 7.390367682091892e-05
591, 7.38349772291258e-05
592, 7.377248402917758e-05
593, 7.370440289378166e-05
594, 7.36458387109451e-05
595, 7.35738649382256e-05
596, 7.350974919972941e-05
597, 7.344871119130403e-05
598, 7.338863360928372e-05
599, 7.332362292800099e-05
600, 7.32605330995284e-05
601, 7.319766882574186e-05
602, 7.313954847631976e-05
603, 7.307612395379692e-05
604, 7.301943696802482e-05
605, 7.296126568689942e-05
606, 7.290171924978495e-05
607, 7.284381717909127e-05
608, 7.278956763911992e-05
609, 7.273396477103233e-05
610, 7.267539331223816e-05
611, 7.261746213771403e-05
612, 7.256092794705182e-05
613, 7.250999624375254e-05
614, 7.24555502529256e-05
615, 7.240494596771896e-05
616, 7.234978693304583e-05
617, 7.229440234368667e-05
618, 7.224088767543435e-05
619, 7.219341932795942e-05
620, 7.214280049083754e-05
621, 7.209151226561517e-05
622, 7.204135181382298e-05
623, 7.198917592177168e-05
624, 7.19473318895325e-05
625, 7.190160977188498e-05
626, 7.185135473264381e-05
627, 7.180228567449376e-05
628, 7.175407517934218e-05
629, 7.170915341703221e-05
630, 7.166155410232022e-05
631, 7.161909161368385e-05
632, 7.157120853662491e-05
633, 7.152606849558651e-05
634, 7.147864380385727e-05
635, 7.143173570511863e-05
636, 7.139785884646699e-05
637, 7.135575287975371e-05
638, 7.130900485208258e-05
639, 7.127066783141345e-05
640, 7.122705574147403e-05
641, 7.118694338714704e-05
642, 7.114613254088908e-05
643, 7.110708975233138e-05
644, 7.106449629645795e-05
645, 7.102367817424238e-05
646, 7.098840433172882e-05
647, 7.094891043379903e-05
648, 7.090962026268244e-05
649, 7.087428093655035e-05
650, 7.083899981807917e-05
651, 7.080587965901941e-05
652, 7.076779729686677e-05
653, 7.073181041050702e-05
654, 7.069652201607823e-05
655, 7.066370744723827e-05
656, 7.062816439429298e-05
657, 7.059625932015479e-05
658, 7.056438334984705e-05
659, 7.052980799926445e-05
660, 7.049857958918437e-05
661, 7.046556856948882e-05
662, 7.043532968964428e-05
663, 7.040206401143223e-05
664, 7.037242176011205e-05
665, 7.034536974970251e-05
666, 7.031367567833513e-05
667, 7.028758409433067e-05
668, 7.02557954355143e-05
669, 7.022901263553649e-05
670, 7.02006000210531e-05
671, 7.017018651822582e-05
672, 7.014592847554013e-05
673, 7.011802517808974e-05
674, 7.009362889220938e-05
675, 7.005965744610876e-05
676, 7.003347127465531e-05
677, 7.001091580605134e-05
678, 6.998606113484129e-05
679, 6.996074807830155e-05
680, 6.994133582338691e-05
681, 6.991223926888779e-05
682, 6.988926907069981e-05
683, 6.986958760535344e-05
684, 6.98402727721259e-05
685, 6.98215008014813e-05
686, 6.980249600019306e-05
687, 6.978081364650279e-05
688, 6.975641008466482e-05
689, 6.973593553993851e-05
690, 6.97148498147726e-05
691, 6.969393871258944e-05
692, 6.967214721953496e-05
693, 6.965783541090786e-05
694, 6.963650957914069e-05
695, 6.961665349081159e-05
696, 6.960539030842483e-05
697, 6.957899313420057e-05
698, 6.956258584978059e-05
699, 6.954223499633372e-05
700, 6.952752301003784e-05
701, 6.950879469513893e-05
702, 6.949911767151207e-05
703, 6.947974907234311e-05
704, 6.94588670739904e-05
705, 6.944344204384834e-05
706, 6.942897744011134e-05
707, 6.941589526832104e-05
708, 6.94013069733046e-05
709, 6.938587466720492e-05
710, 6.937086436664686e-05
711, 6.935725104995072e-05
712, 6.934295379323885e-05
713, 6.93284091539681e-05
714, 6.931928510311991e-05
715, 6.930410017957911e-05
716, 6.929098162800074e-05
717, 6.92803441779688e-05
718, 6.926830974407494e-05
719, 6.925784691702574e-05
720, 6.924310582689941e-05
721, 6.923569890204817e-05
722, 6.922127795405686e-05
723, 6.921500607859343e-05
724, 6.920453597558662e-05
725, 6.919455336173996e-05
726, 6.918498547747731e-05
727, 6.91720997565426e-05
