
  0%|                                                                                                                                                                                                                                                                                            | 0/10 [00:00<?, ?it/s]
0, 0.1364392638206482
1, 0.1364392638206482
2, 0.12979233264923096
3, 0.11694811284542084
4, 0.09893622249364853
5, 0.0775601789355278
6, 0.055496275424957275
7, 0.03876959905028343
8, 0.0270337276160717
9, 0.01946978084743023
10, 0.015015209093689919
11, 0.012622587382793427
12, 0.011442065238952637
13, 0.010876174084842205
14, 0.01055113971233368
15, 0.01025798637419939
16, 0.009892547503113747
17, 0.00942343007773161
18, 0.008859782479703426
19, 0.008231017738580704
20, 0.007570984773337841
21, 0.0069129811599850655
22, 0.006287607364356518
23, 0.005722159054130316
24, 0.005231224000453949
25, 0.004819329362362623
26, 0.0044837836176157
27, 0.004216263070702553
28, 0.004004368558526039
29, 0.0038337293080985546
30, 0.0036886255256831646
31, 0.003556185867637396
32, 0.0034263560082763433
33, 0.0032918122597038746
34, 0.0031488966196775436
35, 0.002997063798829913
36, 0.0028378418646752834
37, 0.0026740282773971558
38, 0.0025093965232372284
39, 0.0023484264966100454
40, 0.0021945983171463013
41, 0.0020512319169938564
42, 0.0019201601389795542
43, 0.0018026347970589995
44, 0.001698641455732286
45, 0.0016072168946266174
46, 0.0015270470175892115
47, 0.0014561157440766692
48, 0.0013926130486652255
49, 0.0013346232008188963
50, 0.0012805650476366282
51, 0.0012294277548789978
52, 0.0011806234251707792
53, 0.0011339600896462798
54, 0.0010893591679632664
55, 0.0010468988912180066
56, 0.0010069063864648342
57, 0.0009695907938294113
58, 0.0009349143947474658
59, 0.0009027976775541902
60, 0.0008730310364626348
61, 0.0008452331530861557
62, 0.0008192019304260612
63, 0.0007946069235913455
64, 0.0007712176302447915
65, 0.0007488620467483997
66, 0.0007273754454217851
67, 0.000706761609762907
68, 0.0006870211800560355
69, 0.0006682256935164332
70, 0.0006504898774437606
71, 0.000633788644336164
72, 0.0006181958597153425
73, 0.0006036519771441817
74, 0.0005901124095544219
75, 0.0005774628953076899
76, 0.00056563870748505
77, 0.0005545617314055562
78, 0.0005440706154331565
79, 0.0005341458600014448
80, 0.000524653063621372
81, 0.0005156119586899877
82, 0.0005069299368187785
83, 0.0004986291751265526
84, 0.0004906922113150358
85, 0.00048310868442058563
86, 0.0004758366849273443
87, 0.00046890421072021127
88, 0.00046228524297475815
89, 0.0004559415392577648
90, 0.000449867220595479
91, 0.0004440438933670521
92, 0.0004384395433589816
93, 0.00043306825682520866
94, 0.0004279033746570349
95, 0.00042290412238799036
96, 0.00041809416143223643
97, 0.0004134394694119692
98, 0.00040891903336159885
99, 0.00040455476846545935
100, 0.00040030840318650007
101, 0.0003961909096688032
102, 0.0003922163450624794
103, 0.00038833607686683536
104, 0.00038457318441942334
105, 0.0003809381742030382
106, 0.00037738177343271673
107, 0.0003739565145224333
108, 0.00037061781040392816
109, 0.0003673935425467789
110, 0.00036424267455004156
111, 0.00036119198193773627
112, 0.00035820232005789876
113, 0.0003552845155354589
114, 0.0003524429048411548
115, 0.00034966174280270934
116, 0.00034695735666900873
117, 0.00034431152744218707
118, 0.00034172003506682813
119, 0.0003391975478734821
120, 0.0003367346653249115
121, 0.0003343228599987924
122, 0.0003319740644656122
123, 0.0003296645591035485
124, 0.00032742362236604095
125, 0.0003252222668379545
126, 0.00032307577203027904
127, 0.00032096588984131813
128, 0.0003189071430824697
129, 0.000316876161377877
130, 0.00031489564571529627
131, 0.00031295607914216816
132, 0.00031104753725230694
133, 0.0003091904509346932
134, 0.00030735612381249666
135, 0.0003055688284803182
136, 0.0003038140421267599
137, 0.0003020906005986035
138, 0.00030040540150366724
139, 0.0002987444750033319
140, 0.00029712560353800654
141, 0.0002955388044938445
142, 0.0002939780824817717
143, 0.0002924495784100145
144, 0.0002909537579398602
145, 0.0002894800854846835
146, 0.00028803502209484577
147, 0.00028663367265835404
148, 0.0002852382604032755
149, 0.00028387573547661304
150, 0.0002825466508511454
151, 0.00028123855008743703
152, 0.00027994695119559765
153, 0.0002786862023640424
154, 0.00027745167608372867
155, 0.00027623839559964836
156, 0.0002750420244410634
157, 0.00027387120644561946
158, 0.00027272250736132264
159, 0.0002715960727073252
160, 0.00027048305491916835
161, 0.0002694052236620337
162, 0.00026833731681108475
163, 0.0002672942355275154
164, 0.00026626436738297343
165, 0.00026525359135121107
166, 0.0002642743056640029
167, 0.00026330564287491143
168, 0.00026234728284180164
169, 0.00026141805574297905
170, 0.00026050812448374927
171, 0.0002596064005047083
172, 0.0002587244671303779
173, 0.0002578598796389997
174, 0.0002570094948168844
175, 0.0002561752335168421
176, 0.00025535435997880995
177, 0.00025455973809584975
178, 0.00025377070414833724
179, 0.0002529988996684551
180, 0.0002522399590816349
181, 0.00025149990688078105
182, 0.00025077007012441754
183, 0.0002500459086149931
184, 0.000249336997512728
185, 0.0002486433950252831
186, 0.00024796539219096303
187, 0.0002473084896337241
188, 0.000246648647589609
189, 0.00024600833421573043
190, 0.00024537398712709546
191, 0.0002447656006552279
192, 0.00024415444931946695
193, 0.00024355945060960948
194, 0.00024298031348735094
195, 0.00024240498896688223
196, 0.00024185178335756063
197, 0.0002413031761534512
198, 0.0002407642314210534
199, 0.0002402446698397398
200, 0.00023972379858605564
201, 0.0002392119204159826
202, 0.0002387151907896623
203, 0.00023823387164156884
204, 0.00023774959845468402
205, 0.00023728770611342043
206, 0.0002368339046370238
207, 0.00023638321727048606
208, 0.00023594687809236348
209, 0.00023552204947918653
210, 0.00023509463062509894
211, 0.00023468499421142042
212, 0.00023427681298926473
213, 0.00023388880072161555
214, 0.0002335031022084877
215, 0.00023312475241255015
216, 0.00023276053252629936
217, 0.0002323916123714298
218, 0.00023204481112770736
219, 0.00023169750056695193
220, 0.0002313612203579396
221, 0.0002310378768015653
222, 0.00023071805480867624
223, 0.00023040123051032424
224, 0.00023009232245385647
225, 0.00022978783817961812
226, 0.00022949191043153405
227, 0.0002292081480845809
228, 0.00022892378910910338
229, 0.000228653458179906
230, 0.00022838785662315786
231, 0.00022813511895947158
232, 0.00022788210480939597
233, 0.00022763868037145585
234, 0.0002273971913382411
235, 0.0002271627017762512
236, 0.00022694127983413637
237, 0.0002267181407660246
238, 0.00022650076425634325
239, 0.00022629342856816947
240, 0.00022609205916523933
241, 0.00022589816944673657
242, 0.00022570579312741756
243, 0.00022552171139977872
244, 0.00022534930030815303
245, 0.00022517172328662127
246, 0.00022500187333207577
247, 0.00022483854263555259
248, 0.00022468576207756996
249, 0.0002245417272206396
250, 0.00022439513122662902
251, 0.00022425755742006004
252, 0.0002241242618765682
253, 0.00022399576846510172
254, 0.0002238774613942951
255, 0.00022375592379830778
256, 0.00022363771859090775
257, 0.00022353214444592595
258, 0.00022342911688610911
259, 0.00022333359811455011
260, 0.0002232372062280774
261, 0.00022315161186270416
262, 0.00022306153550744057
263, 0.00022298513795249164
264, 0.00022290274500846863
265, 0.00022283446742221713
266, 0.00022276039817370474
267, 0.00022269731562118977
268, 0.00022263421851675957
269, 0.00022258187527768314
270, 0.00022252181952353567
271, 0.0002224722265964374
272, 0.00022242763952817768
273, 0.00022237564553506672
274, 0.00022233340132515877
275, 0.0002222955517936498
276, 0.0002222633920609951
277, 0.00022222838015295565
278, 0.0002221966569777578
279, 0.00022216983779799193
280, 0.00022213940974324942
281, 0.0002221160102635622
282, 0.0002220946189481765
283, 0.00022207802976481616
284, 0.00022206295398063958
285, 0.0002220417809439823
286, 0.0002220304886577651
287, 0.00022201673709787428
288, 0.00022200867533683777
289, 0.00022199784871190786
290, 0.0002219930465798825
291, 0.000221989510464482
292, 0.00022198079386726022
293, 0.00022197782527655363
294, 0.00022196758072823286
295, 0.00022197245561983436
296, 0.00022196902136784047
297, 0.00022196979261934757
298, 0.00022196705685928464
299, 0.00022196563077159226
0 2.5136969089508057 0.05 7.823087215423584
1 2.357513427734375 0.05 6.8811445236206055
2 2.192805767059326 0.05 5.953230381011963
3 1.9881486892700195 0.05 4.893842697143555
4 1.7110360860824585 0.05 3.6246886253356934
5 1.3076814413070679 0.05 2.1171724796295166
6 0.8685758113861084 0.05 0.9340450763702393
7 0.6057884097099304 0.05 0.4543539583683014
8 0.49751177430152893 0.05 0.3064495921134949
9 0.4130590856075287 0.05 0.2112402617931366
10 0.3526325523853302 0.05 0.15395618975162506
11 0.30752894282341003 0.05 0.11709122359752655
12 0.27235153317451477 0.05 0.09183580428361893
13 0.24451878666877747 0.05 0.07402472198009491
14 0.22215509414672852 0.05 0.06110332906246185
15 0.2040543258190155 0.05 0.051551807671785355
16 0.18909898400306702 0.05 0.04427216202020645
17 0.17656920850276947 0.05 0.03859955817461014
18 0.165897399187088 0.05 0.03407466039061546
19 0.15665484964847565 0.05 0.030383657664060593
20 0.14856623113155365 0.05 0.0273270420730114
21 0.14135348796844482 0.05 0.024738047271966934
22 0.1348811686038971 0.05 0.02252448908984661
23 0.12900803983211517 0.05 0.020605631172657013
24 0.12365176528692245 0.05 0.01893010549247265
25 0.11873993277549744 0.05 0.017456047236919403
26 0.11420351266860962 0.05 0.01614772342145443
27 0.10999978333711624 0.05 0.014980834908783436
28 0.10610198974609375 0.05 0.013937966898083687
29 0.1024715006351471 0.05 0.013000454753637314
30 0.09906794875860214 0.05 0.012151187285780907
31 0.09587651491165161 0.05 0.011380907148122787
32 0.09288020431995392 0.05 0.010680673643946648
33 0.09005460143089294 0.05 0.010040704160928726
34 0.08737566322088242 0.05 0.009452208876609802
35 0.08484707027673721 0.05 0.008913043886423111
36 0.08243594318628311 0.05 0.008413671515882015
37 0.08014725893735886 0.05 0.0079529769718647
38 0.07796723395586014 0.05 0.0075262137688696384
39 0.07589130103588104 0.05 0.007130769081413746
40 0.07389575988054276 0.05 0.0067606959491968155
41 0.07199513167142868 0.05 0.006417392753064632
42 0.07016375660896301 0.05 0.006095060147345066
43 0.06841111928224564 0.05 0.005794363562017679
44 0.06672786176204681 0.05 0.005512730218470097
45 0.06510059535503387 0.05 0.005247135646641254
46 0.06354375183582306 0.05 0.004999171942472458
47 0.062039706856012344 0.05 0.004765316843986511
48 0.06059154495596886 0.05 0.004545445553958416
49 0.05919334664940834 0.05 0.004338085651397705
50 0.05784732103347778 0.05 0.0041430373676121235
51 0.05653698369860649 0.05 0.0039574699476361275
52 0.05527462437748909 0.05 0.0037827182095497847
53 0.05405221879482269 0.05 0.003617257345467806
54 0.05287385731935501 0.05 0.003461260814219713
55 0.051732730120420456 0.05 0.003313470399007201
56 0.05061732977628708 0.05 0.003172128926962614
57 0.049548398703336716 0.05 0.0030395661015063524
58 0.04850444197654724 0.05 0.0029128314927220345
59 0.04749389365315437 0.05 0.0027927234768867493
60 0.0465107187628746 0.05 0.0026782951317727566
61 0.04556424915790558 0.05 0.0025704007130116224
62 0.044635895639657974 0.05 0.0024667256511747837
63 0.043739281594753265 0.05 0.0023686212953180075
64 0.04287118464708328 0.05 0.002275533974170685
65 0.042022280395030975 0.05 0.002186309080570936
66 0.04119686409831047 0.05 0.0021012641955167055
67 0.040393054485321045 0.05 0.002020066836848855
68 0.03961637616157532 0.05 0.001943129813298583
69 0.038854651153087616 0.05 0.0018691250588744879
70 0.03811946138739586 0.05 0.0017990608466789126
71 0.037401631474494934 0.05 0.0017319421749562025
72 0.03669761121273041 0.05 0.00166735437233001
73 0.036022137850522995 0.05 0.001606539124622941
74 0.035353466868400574 0.05 0.001547449268400669
75 0.03470457345247269 0.05 0.00149116525426507
76 0.03407277539372444 0.05 0.001437366008758545
77 0.03346235677599907 0.05 0.0013863261556252837
78 0.03286257013678551 0.05 0.001337073859758675
79 0.03227411210536957 0.05 0.0012896176194772124
80 0.03170401230454445 0.05 0.0012444595340639353
81 0.031147578731179237 0.05 0.0012011602520942688
82 0.030606413260102272 0.05 0.0011597841512411833
83 0.030075009912252426 0.05 0.0011198605643585324
84 0.02955678477883339 0.05 0.001081600203178823
85 0.0290535856038332 0.05 0.0010450854897499084
86 0.02856072224676609 0.05 0.001009928761050105
87 0.02807754836976528 0.05 0.0009760470129549503
88 0.027606502175331116 0.05 0.0009435721440240741
89 0.02714596502482891 0.05 0.000912353047169745
90 0.02669421397149563 0.05 0.0008822398376651108
91 0.026257405057549477 0.05 0.000853602949064225
92 0.025827040895819664 0.05 0.0008258508751168847
93 0.025408459827303886 0.05 0.0007992985192686319
94 0.024995416402816772 0.05 0.0007735227700322866
95 0.02459382452070713 0.05 0.000748866586945951
96 0.024198243394494057 0.05 0.0007249699556268752
97 0.02381741628050804 0.05 0.0007023307261988521
98 0.02343960665166378 0.05 0.0006802256102673709
99 0.02307085134088993 0.05 0.0006589911645278335
tuning, 0, 0.00025758513947948813
tuning, 1, 0.00025758513947948813
tuning, 2, 0.0002558176638558507
tuning, 3, 0.0002527321921661496
tuning, 4, 0.00024883291916921735
tuning, 5, 0.00024437601678073406
tuning, 6, 0.00023966075968928635
tuning, 7, 0.0002345496031921357
tuning, 8, 0.0002290877455379814
tuning, 9, 0.00022376293782144785
tuning, 10, 0.00021838628163095564
tuning, 11, 0.00021340987586881965
tuning, 12, 0.00020891227177344263
tuning, 13, 0.0002046332519967109
tuning, 14, 0.00020057265646755695
tuning, 15, 0.00019696475646924227
tuning, 16, 0.0001932932937052101
tuning, 17, 0.00018970540259033442
tuning, 18, 0.0001862910285126418
tuning, 19, 0.00018298641953151673
tuning, 20, 0.0001802548358682543
tuning, 21, 0.00017705344362184405
tuning, 22, 0.00017430265143048018
tuning, 23, 0.00017135210509877652
tuning, 24, 0.00016871310072019696
tuning, 25, 0.00016610088641755283
tuning, 26, 0.00016360843437723815
tuning, 27, 0.0001610723847988993
tuning, 28, 0.00015896982222329825
tuning, 29, 0.00015669691492803395
tuning, 30, 0.00015452998923137784
tuning, 31, 0.00015247100964188576
tuning, 32, 0.0001503447856521234
tuning, 33, 0.00014848615683149546
tuning, 34, 0.00014635719708167017
tuning, 35, 0.00014457492216024548
tuning, 36, 0.00014252365508582443
tuning, 37, 0.00014076293155085295
tuning, 38, 0.00013893606956116855
tuning, 39, 0.00013722239236813039
tuning, 40, 0.00013546389527618885
tuning, 41, 0.0001337329449597746
tuning, 42, 0.0001322129974141717
tuning, 43, 0.00013059838966000825
tuning, 44, 0.0001290518994210288
tuning, 45, 0.00012756112846545875
tuning, 46, 0.00012612546561285853
tuning, 47, 0.00012477906420826912
tuning, 48, 0.00012340687680989504
tuning, 49, 0.00012212095316499472
tuning, 50, 0.00012079779844498262
tuning, 51, 0.00011963434371864423
tuning, 52, 0.00011894479393959045
tuning, 53, 0.00011787703260779381
tuning, 54, 0.00011697960871970281
tuning, 55, 0.00011525815352797508
tuning, 56, 0.00011370073480065912
tuning, 57, 0.00011207806528545916
tuning, 58, 0.0001107449279516004
tuning, 59, 0.00010978176578646526
tuning, 60, 0.00010899281915044412
tuning, 61, 0.00010827029473148286
tuning, 62, 0.00010675103112589568
tuning, 63, 0.00010539444338064641
tuning, 64, 0.00010440902406116948
tuning, 65, 0.00010376273712608963
tuning, 66, 0.00010278182162437588
tuning, 67, 0.00010169322922592983
tuning, 68, 0.00010059373744297773
tuning, 69, 9.969586244551465e-05
tuning, 70, 9.887682972475886e-05
tuning, 71, 9.815186785999686e-05
tuning, 72, 9.725681593408808e-05
tuning, 73, 9.61406622081995e-05
tuning, 74, 9.523602057015523e-05
tuning, 75, 9.454157407162711e-05
tuning, 76, 9.388876787852496e-05
tuning, 77, 9.296134521719068e-05
tuning, 78, 9.206128743244335e-05
tuning, 79, 9.123397467192262e-05
tuning, 80, 9.056034468812868e-05
tuning, 81, 8.986242755781859e-05
tuning, 82, 8.908385643735528e-05
tuning, 83, 8.828990394249558e-05
tuning, 84, 8.764093945501372e-05
tuning, 85, 8.6955726146698e-05
tuning, 86, 8.625269401818514e-05
tuning, 87, 8.549138146918267e-05
tuning, 88, 8.484961290378124e-05
tuning, 89, 8.425053965765983e-05
tuning, 90, 8.357068873010576e-05
tuning, 91, 8.288398385047913e-05
tuning, 92, 8.231330866692588e-05
tuning, 93, 8.171930676326156e-05
tuning, 94, 8.111198985716328e-05
tuning, 95, 8.050339238252491e-05
tuning, 96, 7.991072197910398e-05
tuning, 97, 7.934296445455402e-05
tuning, 98, 7.87219250923954e-05
tuning, 99, 7.815782737452537e-05
tuning, 100, 7.761810411466286e-05
tuning, 101, 7.712567457929254e-05
tuning, 102, 7.656640082132071e-05
tuning, 103, 7.605348218930885e-05
tuning, 104, 7.556130731245503e-05
tuning, 105, 7.497337355744094e-05
tuning, 106, 7.447530515491962e-05
tuning, 107, 7.389794336631894e-05
tuning, 108, 7.342196477111429e-05
tuning, 109, 7.293937960639596e-05
tuning, 110, 7.243931031553075e-05
tuning, 111, 7.192614430096e-05
tuning, 112, 7.149128941819072e-05
tuning, 113, 7.103083771653473e-05
tuning, 114, 7.05691272742115e-05
tuning, 115, 7.010893023107201e-05
tuning, 116, 6.963741907384247e-05
tuning, 117, 6.915345875313506e-05
tuning, 118, 6.870258948765695e-05
tuning, 119, 6.82174795656465e-05
tuning, 120, 6.781851698178798e-05
tuning, 121, 6.743237463524565e-05
tuning, 122, 6.701956590404734e-05
tuning, 123, 6.659892096649855e-05
tuning, 124, 6.62380043650046e-05
tuning, 125, 6.580840272363275e-05
tuning, 126, 6.550164835061878e-05
tuning, 127, 6.503114127554e-05
tuning, 128, 6.477542774518952e-05
tuning, 129, 6.431765359593555e-05
tuning, 130, 6.406351167242974e-05
tuning, 131, 6.368443428073078e-05
tuning, 132, 6.335615762509406e-05
tuning, 133, 6.304099224507809e-05
tuning, 134, 6.278348155319691e-05
tuning, 135, 6.243285315576941e-05
tuning, 136, 6.213708547875285e-05
tuning, 137, 6.198742630658671e-05
tuning, 138, 6.162239878904074e-05
tuning, 139, 6.139868492027745e-05
tuning, 140, 6.116292934166268e-05
tuning, 141, 6.087268047849648e-05
tuning, 142, 6.064749322831631e-05
tuning, 143, 6.040713196853176e-05
tuning, 144, 6.020100408932194e-05
tuning, 145, 6.0015416238456964e-05
tuning, 146, 5.9784098993986845e-05
tuning, 147, 5.9583278925856575e-05
tuning, 148, 5.938594040344469e-05
tuning, 149, 5.922698983340524e-05
tuning, 150, 5.9056965255877e-05
tuning, 151, 5.890281681786291e-05
tuning, 152, 5.87420909141656e-05
tuning, 153, 5.8568948588799685e-05
tuning, 154, 5.844894258189015e-05
tuning, 155, 5.828841676702723e-05
tuning, 156, 5.813864845549688e-05
tuning, 157, 5.802285159006715e-05
tuning, 158, 5.787146437796764e-05
tuning, 159, 5.774701276095584e-05
tuning, 160, 5.764132583863102e-05
tuning, 161, 5.7546676544006914e-05
tuning, 162, 5.7423687394475564e-05
tuning, 163, 5.732050340157002e-05
tuning, 164, 5.723729191231541e-05
tuning, 165, 5.7161971199093387e-05
tuning, 166, 5.7072022173088044e-05
tuning, 167, 5.6968285207403824e-05
tuning, 168, 5.689368845196441e-05
tuning, 169, 5.685460928361863e-05
tuning, 170, 5.67872884857934e-05
tuning, 171, 5.6711298384470865e-05
tuning, 172, 5.6664062867639586e-05
tuning, 173, 5.6611112086102366e-05
tuning, 174, 5.656985013047233e-05
tuning, 175, 5.651107494486496e-05
tuning, 176, 5.6469310948159546e-05
tuning, 177, 5.6420038163196295e-05
tuning, 178, 5.638251604977995e-05
tuning, 179, 5.635567504214123e-05
tuning, 180, 5.63260618946515e-05
tuning, 181, 5.629644147120416e-05
tuning, 182, 5.627112841466442e-05
tuning, 183, 5.6257307733176276e-05
tuning, 184, 5.623565812129527e-05
tuning, 185, 5.622066601063125e-05
tuning, 186, 5.6206423323601484e-05
tuning, 187, 5.619740841211751e-05
tuning, 188, 5.61830893275328e-05
tuning, 189, 5.6173648772528395e-05
tuning, 190, 5.616721318801865e-05
tuning, 191, 5.61519518669229e-05
tuning, 192, 5.6146753195207566e-05
tuning, 193, 5.615451300400309e-05
