
  0%|                                                                                                                                                                                                                                                                                            | 0/10 [00:00<?, ?it/s]
0, 0.1364392638206482
1, 0.1364392638206482
2, 0.1297924518585205
3, 0.11694803088903427
4, 0.098936066031456
5, 0.07756033539772034
6, 0.055496107786893845
7, 0.038769252598285675
8, 0.027032312005758286
9, 0.019467566162347794
10, 0.015012731775641441
11, 0.012620682828128338
12, 0.011441484093666077
13, 0.010877318680286407
14, 0.010554337874054909
15, 0.0102627482265234
16, 0.009898480959236622
17, 0.00942970346659422
18, 0.008866548538208008
19, 0.008236611261963844
20, 0.0075759682804346085
21, 0.006916556041687727
22, 0.006290840916335583
23, 0.00572548434138298
24, 0.005235400982201099
25, 0.004825087264180183
26, 0.00449143722653389
27, 0.004226871766149998
28, 0.004018077161163092
29, 0.00384967727586627
30, 0.0037067565135657787
31, 0.0035756174474954605
32, 0.0034461754839867353
33, 0.0033107539638876915
34, 0.003166393144056201
35, 0.0030121400486677885
36, 0.0028498831670731306
37, 0.0026830274146050215
38, 0.0025155527982860804
39, 0.002351893577724695
40, 0.0021961196325719357
41, 0.002051358111202717
42, 0.0019197175279259682
43, 0.0018021613359451294
44, 0.00169858755543828
45, 0.0016079827910289168
46, 0.0015286239795386791
47, 0.0014584510354325175
48, 0.0013953852467238903
49, 0.0013374154223129153
50, 0.0012829998740926385
51, 0.0012312352191656828
52, 0.001181508880108595
53, 0.0011338869808241725
54, 0.0010882577626034617
55, 0.0010450546396896243
56, 0.0010044225491583347
57, 0.0009666226687841117
58, 0.0009316611103713512
59, 0.0008992458460852504
60, 0.0008691203547641635
61, 0.0008409550646319985
62, 0.0008143394952639937
63, 0.0007890285924077034
64, 0.0007647999445907772
65, 0.00074142956873402
66, 0.0007189367315731943
67, 0.0006973724230192602
68, 0.0006768332095816731
69, 0.0006574329454451799
70, 0.0006392122013494372
71, 0.0006222740048542619
72, 0.000606546294875443
73, 0.0005919524701312184
74, 0.0005784106906503439
75, 0.0005657549481838942
76, 0.0005538695841096342
77, 0.000542644876986742
78, 0.0005319651681929827
79, 0.0005217515863478184
80, 0.0005119750276207924
81, 0.0005026021390222013
82, 0.0004936344921588898
83, 0.0004850408877246082
84, 0.00047685083700343966
85, 0.00046904123155400157
86, 0.0004615788348019123
87, 0.00045444045099429786
88, 0.00044760663877241313
89, 0.0004410528053995222
90, 0.0004347813955973834
91, 0.00042872125050053
92, 0.0004229038895573467
93, 0.0004172940971329808
94, 0.000411859480664134
95, 0.00040657640784047544
96, 0.0004014614678453654
97, 0.00039648072561249137
98, 0.0003916487912647426
99, 0.00038696982664987445
100, 0.00038241915171965957
101, 0.00037799240089952946
102, 0.0003737267106771469
103, 0.0003695980121847242
104, 0.00036558820283971727
105, 0.0003616840986069292
106, 0.0003578864852897823
107, 0.00035418273182585835
108, 0.0003505608474370092
109, 0.00034700240939855576
110, 0.0003435448161326349
111, 0.00034013480762951076
112, 0.0003368268662597984
113, 0.0003335951769258827
114, 0.00033042975701391697
115, 0.00032733671832829714
116, 0.0003243009850848466
117, 0.00032134735374711454
118, 0.00031843665055930614
119, 0.0003155935846734792
120, 0.00031280750408768654
121, 0.00031006865901872516
122, 0.00030736258486285806
123, 0.00030472094658762217
124, 0.0003021284646820277
125, 0.0002995808608829975
126, 0.0002970985951833427
127, 0.0002946494787465781
128, 0.00029226436163298786
129, 0.00028989618294872344
130, 0.0002875881618820131
131, 0.000285305199213326
132, 0.00028307660249993205
133, 0.0002808649733196944
134, 0.00027870366466231644
135, 0.00027658112230710685
136, 0.0002744917292147875
137, 0.00027243190561421216
138, 0.0002704146027099341
139, 0.0002684306527953595
140, 0.0002664774074219167
141, 0.00026456586783751845
142, 0.0002626850036904216
143, 0.0002608223585411906
144, 0.0002589989744592458
145, 0.0002572002704255283
146, 0.0002554311649873853
147, 0.00025369468494318426
148, 0.0002519753761589527
149, 0.0002502900315448642
150, 0.0002486137382220477
151, 0.0002469741739332676
152, 0.0002453530323691666
153, 0.0002437564980937168
154, 0.00024218430917244405
155, 0.00024061425938270986
156, 0.00023906368005555123
157, 0.00023754045832902193
158, 0.00023601818247698247
159, 0.00023451758897863328
160, 0.00023303224588744342
161, 0.0002315583114977926
162, 0.00023008720017969608
163, 0.0002286421658936888
164, 0.0002271953271701932
165, 0.0002257565502077341
166, 0.00022432021796703339
167, 0.00022290197375696152
168, 0.00022149353753775358
169, 0.00022010748216416687
170, 0.00021873152581974864
171, 0.00021737307542935014
172, 0.00021604534413199872
173, 0.00021472168737091124
174, 0.00021341245155781507
175, 0.00021210643171798438
176, 0.00021082260354887694
177, 0.00020955798390787095
178, 0.00020830401626881212
179, 0.0002070608315989375
180, 0.00020584270532708615
181, 0.00020465205307118595
182, 0.00020346874953247607
183, 0.00020229886285960674
184, 0.00020115576626267284
185, 0.0002000174717977643
186, 0.00019889010582119226
187, 0.0001977786741917953
188, 0.00019668598542921245
189, 0.00019559588690754026
190, 0.00019453265122137964
191, 0.00019347648776602
192, 0.0001924352254718542
193, 0.00019140656513627619
194, 0.00019038814934901893
195, 0.00018938099674414843
196, 0.00018838529649656266
197, 0.00018741036183200777
198, 0.00018644418742042035
199, 0.000185482669621706
200, 0.000184549018740654
201, 0.00018361075490247458
202, 0.00018270040163770318
203, 0.00018179608741775155
204, 0.0001808996603358537
205, 0.00018001985154114664
206, 0.00017915530770551413
207, 0.00017829096759669483
208, 0.0001774391275830567
209, 0.00017659825971350074
210, 0.00017576658865436912
211, 0.0001749400980770588
212, 0.00017412820307072252
213, 0.0001733225944917649
214, 0.000172528438270092
215, 0.00017174000095110387
216, 0.0001709539064904675
217, 0.00017018706421367824
218, 0.0001694227394182235
219, 0.00016866327496245503
220, 0.0001679150154814124
221, 0.00016716844402253628
222, 0.0001664276933297515
223, 0.00016569960280321538
224, 0.0001649692712817341
225, 0.00016425331705249846
226, 0.0001635383814573288
227, 0.0001628300960874185
228, 0.00016213158960454166
229, 0.00016143488755915314
230, 0.00016074969607871026
231, 0.00016006766236387193
232, 0.0001593838824192062
233, 0.00015870778588578105
234, 0.00015803535643499345
235, 0.00015737033390905708
236, 0.00015669738058932126
237, 0.0001560366654302925
238, 0.0001553756301291287
239, 0.0001547239808132872
240, 0.000154071458382532
241, 0.00015341762627940625
242, 0.00015276606427505612
243, 0.00015211408026516438
244, 0.00015147231169976294
245, 0.0001508158748038113
246, 0.000150158884935081
247, 0.00014950598415452987
248, 0.0001488336711190641
249, 0.00014816448674537241
250, 0.00014748275862075388
251, 0.0001468001864850521
252, 0.00014610429934691638
253, 0.00014540816482622176
254, 0.00014471265603788197
255, 0.00014403436216525733
256, 0.00014334905426949263
257, 0.00014267541700974107
258, 0.0001420007029082626
259, 0.00014133332297205925
260, 0.0001406911324011162
261, 0.00014002728858031332
262, 0.0001393814163748175
263, 0.00013874672004021704
264, 0.00013810634845867753
265, 0.0001375020365230739
266, 0.000136893373564817
267, 0.00013629563909489661
268, 0.0001356996945105493
269, 0.0001351084210909903
270, 0.00013452737766783684
271, 0.00013395570567809045
272, 0.000133390465634875
273, 0.00013282238796819001
274, 0.00013226349256001413
275, 0.00013172031322028488
276, 0.00013117356866132468
277, 0.00013064200174994767
278, 0.00013010272232349962
279, 0.00012957979924976826
280, 0.00012906102347187698
281, 0.00012854542001150548
282, 0.00012803138815797865
283, 0.0001275288814213127
284, 0.00012702253297902644
285, 0.00012652324221562594
286, 0.00012602696369867772
287, 0.00012554133718367666
288, 0.00012504577171057463
289, 0.00012457270349841565
290, 0.00012408116890583187
291, 0.00012360878463368863
292, 0.00012314572813920677
293, 0.0001226806634804234
294, 0.00012220864300616086
295, 0.0001217530807480216
296, 0.00012129207607358694
297, 0.00012083685578545555
298, 0.00012038146087434143
299, 0.00011993413500022143
300, 0.00011949344479944557
301, 0.00011904706479981542
302, 0.00011860092490678653
303, 0.00011816890764748678
304, 0.0001177372905658558
305, 0.00011730601545423269
306, 0.00011687251389957964
307, 0.00011644489131867886
308, 0.00011603138409554958
309, 0.0001156075595645234
310, 0.00011518727842485532
311, 0.00011477121006464586
312, 0.00011435351188993081
313, 0.00011394452303647995
314, 0.00011352903675287962
315, 0.00011313621507724747
316, 0.00011272825940977782
317, 0.00011233623808948323
318, 0.00011192966485396028
319, 0.00011153640662087128
320, 0.00011114170047221705
321, 0.00011075386282755062
322, 0.00011036661453545094
323, 0.00010997417848557234
324, 0.00010959227802231908
325, 0.0001092123202397488
326, 0.00010882687638513744
327, 0.00010844900680240244
328, 0.00010807893704622984
329, 0.00010769577784230933
330, 0.000107325024146121
331, 0.00010694766388041899
332, 0.00010658395331120118
333, 0.00010621469118632376
334, 0.00010585367999738082
335, 0.0001054848762578331
336, 0.00010511706204852089
337, 0.00010475095768924803
338, 0.00010438940807944164
339, 0.00010403154738014564
340, 0.00010366727656219155
341, 0.00010331446537747979
342, 0.00010295606625732034
343, 0.00010260027920594439
344, 0.00010224133438896388
345, 0.00010188030864810571
346, 0.00010152897448278964
347, 0.00010117050260305405
348, 0.00010081586515298113
349, 0.00010045652015833184
350, 0.00010009883408201858
351, 9.974353451980278e-05
352, 9.938592847902328e-05
353, 9.902344027068466e-05
354, 9.866922482615337e-05
355, 9.830728959059343e-05
356, 9.795487858355045e-05
357, 9.759218664839864e-05
358, 9.724947449285537e-05
359, 9.68973254202865e-05
360, 9.654278255766258e-05
361, 9.619749471312389e-05
362, 9.585391671862453e-05
363, 9.550964750815183e-05
364, 9.516224963590503e-05
365, 9.482385212322697e-05
366, 9.448747005080804e-05
367, 9.415004751645029e-05
368, 9.381530981045216e-05
369, 9.348499588668346e-05
370, 9.314437920693308e-05
371, 9.28101217141375e-05
372, 9.247823618352413e-05
373, 9.215295722242445e-05
374, 9.181670611724257e-05
375, 9.14834308787249e-05
376, 9.115492866840214e-05
377, 9.082850010599941e-05
378, 9.049513028003275e-05
379, 9.016512194648385e-05
380, 8.983798034023494e-05
381, 8.951054041972384e-05
382, 8.918417734093964e-05
383, 8.885591523721814e-05
384, 8.85336339706555e-05
385, 8.820426592137665e-05
386, 8.788175182417035e-05
387, 8.755805174587294e-05
388, 8.72329983394593e-05
389, 8.691154653206468e-05
390, 8.6589039710816e-05
391, 8.62687811604701e-05
392, 8.594372775405645e-05
393, 8.562050061300397e-05
394, 8.529757906217128e-05
395, 8.497636736137792e-05
396, 8.466108556604013e-05
397, 8.43437883304432e-05
398, 8.401573722949252e-05
399, 8.369763963855803e-05
400, 8.338068437296897e-05
401, 8.305725350510329e-05
402, 8.274021092802286e-05
403, 8.242309559136629e-05
404, 8.210672240238637e-05
405, 8.179072756320238e-05
406, 8.147998596541584e-05
407, 8.116865501506254e-05
408, 8.086087473202497e-05
409, 8.054679346969351e-05
410, 8.024262206163257e-05
411, 7.993531471583992e-05
412, 7.963211828609928e-05
413, 7.932714652270079e-05
414, 7.902103243395686e-05
415, 7.872101559769362e-05
416, 7.842177001293749e-05
417, 7.811955583747476e-05
418, 7.782451575621963e-05
419, 7.752306555630639e-05
420, 7.723424641881138e-05
421, 7.693399675190449e-05
422, 7.66463199397549e-05
423, 7.635306246811524e-05
424, 7.606139115523547e-05
425, 7.57740272092633e-05
426, 7.548838038928807e-05
427, 7.519974315073341e-05
428, 7.49113823985681e-05
429, 7.462764187948778e-05
430, 7.434574945364147e-05
431, 7.406481745420024e-05
432, 7.378702866844833e-05
433, 7.349941733991727e-05
434, 7.322197780013084e-05
435, 7.294224633369595e-05
436, 7.266311877174303e-05
437, 7.238371472340077e-05
438, 7.210850162664428e-05
439, 7.18342635082081e-05
440, 7.155285857152194e-05
441, 7.128262950573117e-05
442, 7.100366929080337e-05
443, 7.073710730765015e-05
444, 7.045907841529697e-05
445, 7.018687028903514e-05
446, 6.991654663579538e-05
447, 6.964589556446299e-05
448, 6.937597936484963e-05
449, 6.91018722136505e-05
450, 6.88373256707564e-05
451, 6.856214895378798e-05
452, 6.829806079622358e-05
453, 6.80303419358097e-05
454, 6.776634108973667e-05
455, 6.749963358743116e-05
456, 6.72309979563579e-05
457, 6.69672735966742e-05
458, 6.67009298922494e-05
459, 6.64404797134921e-05
460, 6.61803933326155e-05
461, 6.592330464627594e-05
462, 6.566052616108209e-05
463, 6.540659524034709e-05
464, 6.514704728033394e-05
465, 6.489228690043092e-05
466, 6.463855970650911e-05
467, 6.438636046368629e-05
468, 6.413379014702514e-05
469, 6.388004112523049e-05
470, 6.362431304296479e-05
471, 6.337680679280311e-05
472, 6.31275906926021e-05
473, 6.288307486101985e-05
474, 6.26343535259366e-05
475, 6.238662172108889e-05
476, 6.21465514996089e-05
477, 6.189526175148785e-05
478, 6.165292870718986e-05
479, 6.141870835563168e-05
480, 6.117451994214207e-05
481, 6.092898183851503e-05
482, 6.0690537793561816e-05
483, 6.0452843172242865e-05
484, 6.02124746365007e-05
485, 5.997420521453023e-05
486, 5.973454608465545e-05
487, 5.9496214817045256e-05
488, 5.926112862653099e-05
489, 5.9021287597715855e-05
490, 5.8790821640286595e-05
491, 5.855639756191522e-05
492, 5.8326910220785066e-05
493, 5.808690912090242e-05
494, 5.785502435173839e-05
495, 5.762196087744087e-05
496, 5.738890831707977e-05
497, 5.716032683267258e-05
498, 5.692736885976046e-05
499, 5.669584425049834e-05
500, 5.645911369356327e-05
501, 5.623033212032169e-05
502, 5.599629002972506e-05
503, 5.577021511271596e-05
504, 5.554430390475318e-05
505, 5.530948328669183e-05
506, 5.50825207028538e-05
507, 5.485047586262226e-05
508, 5.462334956973791e-05
509, 5.4397132771555334e-05
510, 5.417073771241121e-05
511, 5.394445906858891e-05
512, 5.371277075028047e-05
513, 5.349079947336577e-05
514, 5.3268042393028736e-05
515, 5.304038495523855e-05
516, 5.28147465956863e-05
517, 5.2590294217225164e-05
518, 5.236819197307341e-05
519, 5.214531483943574e-05
520, 5.192417302168906e-05
521, 5.170229997020215e-05
522, 5.147906995262019e-05
523, 5.1258735766168684e-05
524, 5.104187221149914e-05
525, 5.0818103773053735e-05
526, 5.060030525783077e-05
527, 5.0381800974719226e-05
528, 5.0158541853306815e-05
529, 4.993873153580353e-05
530, 4.972121678292751e-05
531, 4.95057029183954e-05
532, 4.929321585223079e-05
533, 4.9072474212152883e-05
534, 4.8857265937840566e-05
535, 4.86476747028064e-05
536, 4.843220085604116e-05
537, 4.8221510951407254e-05
538, 4.801130489795469e-05
539, 4.780046219821088e-05
540, 4.759482908411883e-05
541, 4.737907147500664e-05
542, 4.7165824071271345e-05
543, 4.695431562140584e-05
544, 4.674409865401685e-05
545, 4.651941344491206e-05
546, 4.6303477574838325e-05
547, 4.609405004885048e-05
548, 4.588074443745427e-05
549, 4.5663611672353e-05
550, 4.544688999885693e-05
551, 4.524545147432946e-05
552, 4.503778109210543e-05
553, 4.482165604713373e-05
554, 4.460592026589438e-05
555, 4.440869088284671e-05
556, 4.420113327796571e-05
557, 4.3987973185721785e-05
558, 4.377696313895285e-05
559, 4.357485886430368e-05
560, 4.336544589023106e-05
561, 4.3160165660083294e-05
562, 4.2952677176799625e-05
563, 4.2744326492538676e-05
564, 4.253325460013002e-05
565, 4.2323488742113113e-05
566, 4.211178020341322e-05
567, 4.190366598777473e-05
568, 4.170026659267023e-05
569, 4.14908972743433e-05
570, 4.12809822591953e-05
571, 4.107438144274056e-05
572, 4.087737761437893e-05
573, 4.067947156727314e-05
574, 4.0481183532392606e-05
575, 4.028563853353262e-05
576, 4.009184704045765e-05
577, 3.9903770812088624e-05
578, 3.970925172325224e-05
579, 3.95284550904762e-05
580, 3.9343489333987236e-05
581, 3.915772686013952e-05
582, 3.897719216183759e-05
583, 3.880306758219376e-05
584, 3.8616992242168635e-05
585, 3.843747253995389e-05
586, 3.8264857721515e-05
587, 3.8095353374956176e-05
588, 3.791251947404817e-05
589, 3.774774813791737e-05
590, 3.757281228899956e-05
591, 3.7399251596070826e-05
592, 3.7232544855214655e-05
593, 3.7058820453239605e-05
594, 3.6886860470985994e-05
595, 3.6721139622386545e-05
596, 3.655977707239799e-05
597, 3.638867201516405e-05
598, 3.6217490560375154e-05
599, 3.605307574616745e-05
600, 3.5886740079149604e-05
601, 3.571648267097771e-05
602, 3.5553784982766956e-05
603, 3.5382399801164865e-05
604, 3.521881080814637e-05
605, 3.505088898236863e-05
606, 3.488589936750941e-05
607, 3.471811578492634e-05
608, 3.455458499956876e-05
609, 3.4388896892778575e-05
610, 3.422214649617672e-05
611, 3.405876850592904e-05
612, 3.3900119888130575e-05
613, 3.3737142075551674e-05
614, 3.3572985557839274e-05
615, 3.341462434036657e-05
616, 3.325283614685759e-05
617, 3.3097003324655816e-05
618, 3.294017005828209e-05
619, 3.2784490031190217e-05
620, 3.262961399741471e-05
621, 3.247627319069579e-05
622, 3.232731978641823e-05
623, 3.217348057660274e-05
624, 3.2025971449911594e-05
625, 3.187619586242363e-05
626, 3.1726129236631095e-05
627, 3.158473555231467e-05
628, 3.1436571589438245e-05
629, 3.129327524220571e-05
630, 3.11474796035327e-05
631, 3.1002658943179995e-05
632, 3.0866674933349714e-05
633, 3.072371328016743e-05
634, 3.058271613554098e-05
635, 3.0442144634434953e-05
636, 3.030488733202219e-05
637, 3.0164053896442056e-05
638, 3.002967787324451e-05
639, 2.989347922266461e-05
640, 2.975658208015375e-05
641, 2.9618189728353173e-05
642, 2.9482715035555884e-05
643, 2.9353801437537186e-05
644, 2.922025123552885e-05
645, 2.9089434974594042e-05
646, 2.8958675102330744e-05
647, 2.8827176720369607e-05
648, 2.8697131710941903e-05
649, 2.8565606044139713e-05
650, 2.8439841116778553e-05
651, 2.8309979825280607e-05
652, 2.8186226700199768e-05
653, 2.8059166652383283e-05
654, 2.7931746444664896e-05
655, 2.7803445846075192e-05
656, 2.76780756394146e-05
657, 2.7552681785891764e-05
658, 2.7431888156570494e-05
659, 2.7307625714456663e-05
660, 2.718707219173666e-05
661, 2.7066844268119894e-05
662, 2.6940961106447503e-05
663, 2.6821295250556432e-05
664, 2.6704210540628992e-05
665, 2.6580495614325628e-05
666, 2.6462086680112407e-05
667, 2.6346671802457422e-05
668, 2.6224752218695357e-05
669, 2.6108693418791518e-05
670, 2.5990470021497458e-05
671, 2.5872835976770148e-05
672, 2.5756231480045244e-05
673, 2.564291935414076e-05
674, 2.5530796847306192e-05
675, 2.5418463337700814e-05
676, 2.530374149500858e-05
677, 2.5191844542860053e-05
678, 2.5075160010601394e-05
679, 2.4960459995782003e-05
680, 2.485230470483657e-05
681, 2.4741091692703776e-05
682, 2.4629776817164384e-05
683, 2.4517406927770935e-05
684, 2.4413528080913238e-05
685, 2.429950654914137e-05
686, 2.4192893761210144e-05
687, 2.4082237359834835e-05
688, 2.397590651526116e-05
689, 2.3873461032053456e-05
690, 2.3761960619594902e-05
691, 2.365269756410271e-05
692, 2.355094693484716e-05
693, 2.3442291421815753e-05
694, 2.33411028602859e-05
695, 2.323579064977821e-05
696, 2.312849937879946e-05
697, 2.3028869691188447e-05
698, 2.292521094204858e-05
699, 2.282352033944335e-05
700, 2.2719366825185716e-05
701, 2.2619866285822354e-05
702, 2.2515534510603175e-05
703, 2.2417811123887077e-05
704, 2.2314430680125952e-05
705, 2.221491558884736e-05
706, 2.2114973035058938e-05
707, 2.2018226445652544e-05
708, 2.191983730881475e-05
709, 2.182196476496756e-05
710, 2.1724617909057997e-05
711, 2.162808050343301e-05
712, 2.1526135242311284e-05
713, 2.14317024074262e-05
714, 2.1336658392101526e-05
715, 2.124059210473206e-05
716, 2.114687958965078e-05
717, 2.105021121678874e-05
718, 2.0957388187525794e-05
719, 2.0861485609202646e-05
720, 2.0770610717590898e-05
721, 2.067513923975639e-05
722, 2.0581885110004805e-05
723, 2.0488612790359184e-05
724, 2.0397561456775293e-05
725, 2.0309285901021212e-05
