
  0%|                                                                                                                       | 0/10 [00:00<?, ?it/s]
0, 0.1364392638206482
1, 0.1364392638206482
2, 0.12979227304458618
3, 0.116948202252388
4, 0.09893608093261719
5, 0.07756021618843079
6, 0.05549612641334534
7, 0.038775522261857986
8, 0.027053510770201683
9, 0.019503213465213776
10, 0.015053560957312584
11, 0.012652745470404625
12, 0.011451756581664085
13, 0.010858583264052868
14, 0.010505846701562405
15, 0.0101883914321661
16, 0.009807651862502098
17, 0.009330961853265762
18, 0.008769343607127666
19, 0.008149949833750725
20, 0.007504182867705822
21, 0.006861233152449131
22, 0.00624833395704627
23, 0.00568607822060585
24, 0.005188410170376301
25, 0.004759819246828556
26, 0.004398300312459469
27, 0.004098387435078621
28, 0.0038504148833453655
29, 0.0036444873549044132
30, 0.0034696839284151793
31, 0.00331665575504303
32, 0.0031775902025401592
33, 0.0030463356524705887
34, 0.002919144928455353
35, 0.0027932114899158478
36, 0.002668107394129038
37, 0.002543641719967127
38, 0.0024207604583352804
39, 0.002300627762451768
40, 0.0021845586597919464
41, 0.0020737163722515106
42, 0.0019691861234605312
43, 0.0018715601181611419
44, 0.0017812702571973205
45, 0.001698508858680725
46, 0.0016230801120400429
47, 0.0015548061346635222
48, 0.0014930886682122946
49, 0.0014374986058101058
50, 0.0013876042794436216
51, 0.0013426307123154402
52, 0.0013022798812016845
53, 0.0012659648200497031
54, 0.0012332272017374635
55, 0.001203661784529686
56, 0.001177123631350696
57, 0.0011531359050422907
58, 0.0011315576266497374
59, 0.0011121147545054555
60, 0.0010946339461952448
61, 0.001079043373465538
62, 0.001065084245055914
63, 0.0010527007980272174
64, 0.0010417442535981536
65, 0.001032054889947176
66, 0.0010235847439616919
67, 0.0010163572151213884
68, 0.0010100279469043016
69, 0.0010046615498140454
70, 0.0010002005146816373
71, 0.00099652330391109
72, 0.000993537250906229
73, 0.0009911702945828438
74, 0.0009892875095829368
75, 0.000987958163022995
76, 0.0009870482608675957
77, 0.0009864469757303596
78, 0.0009860934223979712
79, 0.000985981896519661
0 2.4220287799835205 0.05 7.585533142089844
1 2.2591230869293213 0.05 6.599443435668945
2 2.0892391204833984 0.05 5.644219398498535
3 1.8915448188781738 0.05 4.626587390899658
4 1.6152139902114868 0.05 3.37355375289917
5 1.2372653484344482 0.05 1.9794895648956299
6 0.8264208436012268 0.05 0.8831411004066467
7 0.5805193781852722 0.05 0.43577367067337036
8 0.47351330518722534 0.05 0.2899291515350342
9 0.39313462376594543 0.05 0.19985273480415344
tuning, 0, 0.0068639419041574
tuning, 1, 0.006150990724563599
tuning, 2, 0.005552612245082855
tuning, 3, 0.00502166710793972
tuning, 4, 0.0045437877997756
tuning, 5, 0.004121092148125172
tuning, 6, 0.00375314150005579
tuning, 7, 0.003439438994973898
tuning, 8, 0.003176329657435417
tuning, 9, 0.0029596947133541107
tuning, 10, 0.002783911768347025
tuning, 11, 0.0026393418665975332
tuning, 12, 0.002515459666028619
tuning, 13, 0.0024043298326432705
tuning, 14, 0.0023001390509307384
tuning, 15, 0.002202318049967289
tuning, 16, 0.002109984401613474
tuning, 17, 0.0020251129753887653
tuning, 18, 0.0019486879464238882
tuning, 19, 0.0018798757810145617
tuning, 20, 0.0018163458444178104
tuning, 21, 0.001755878096446395
tuning, 22, 0.0016963601810857654
tuning, 23, 0.0016373781254515052
tuning, 24, 0.0015800882829353213
tuning, 25, 0.0015257945051416755
tuning, 26, 0.0014771902933716774
tuning, 27, 0.0014355180319398642
tuning, 28, 0.0013990446459501982
tuning, 29, 0.0013638439122587442
tuning, 30, 0.0013281302526593208
tuning, 31, 0.0012913538375869393
tuning, 32, 0.0012544499477371573
tuning, 33, 0.001219212543219328
tuning, 34, 0.0011862406972795725
tuning, 35, 0.0011548586189746857
tuning, 36, 0.0011245694477111101
tuning, 37, 0.0010949233546853065
tuning, 38, 0.0010661549167707562
tuning, 39, 0.0010391991818323731
tuning, 40, 0.0010147013235837221
tuning, 41, 0.000992128625512123
tuning, 42, 0.0009708401630632579
tuning, 43, 0.0009498219005763531
tuning, 44, 0.000928398862015456
tuning, 45, 0.0009078930015675724
tuning, 46, 0.0008891205652616918
tuning, 47, 0.0008725847001187503
tuning, 48, 0.0008578291162848473
tuning, 49, 0.0008433283073827624
tuning, 50, 0.0008282500202767551
tuning, 51, 0.0008114377851597965
tuning, 52, 0.00079406111035496
tuning, 53, 0.0007771201198920608
tuning, 54, 0.0007614265196025372
tuning, 55, 0.0007465828093700111
tuning, 56, 0.0007318560965359211
tuning, 57, 0.0007170143071562052
tuning, 58, 0.0007022774661891162
tuning, 59, 0.0006884252652525902
tuning, 60, 0.0006763042765669525
tuning, 61, 0.0006655588513240218
tuning, 62, 0.0006553441053256392
tuning, 63, 0.0006449107895605266
tuning, 64, 0.0006338251987472177
tuning, 65, 0.0006221083458513021
tuning, 66, 0.0006105448119342327
tuning, 67, 0.0005994763923808932
tuning, 68, 0.0005890190368518233
tuning, 69, 0.0005785942194052041
tuning, 70, 0.0005684517091140151
tuning, 71, 0.0005585451144725084
tuning, 72, 0.0005486145964823663
tuning, 73, 0.0005388438585214317
tuning, 74, 0.0005289730615913868
tuning, 75, 0.0005192819517105818
tuning, 76, 0.0005102384602651
tuning, 77, 0.0005015228525735438
tuning, 78, 0.0004932554438710213
tuning, 79, 0.0004853316058870405
tuning, 80, 0.00047761708265170455
tuning, 81, 0.0004702152218669653
tuning, 82, 0.0004630272160284221
tuning, 83, 0.0004558900836855173
tuning, 84, 0.00044892122969031334
tuning, 85, 0.0004422070342116058
tuning, 86, 0.00043574010487645864
tuning, 87, 0.00042955082608386874
tuning, 88, 0.0004234021180309355
tuning, 89, 0.0004173407796770334
tuning, 90, 0.000411321350838989
tuning, 91, 0.00040563615038990974
tuning, 92, 0.0004000904446002096
tuning, 93, 0.0003945909847971052
tuning, 94, 0.0003891554079018533
tuning, 95, 0.0003838157863356173
tuning, 96, 0.00037857526331208646
tuning, 97, 0.00037347711622714996
tuning, 98, 0.000368486566003412
tuning, 99, 0.00036382791586220264
tuning, 100, 0.00035930232843384147
tuning, 101, 0.00035487438435666263
tuning, 102, 0.00035047042183578014
tuning, 103, 0.0003460405278019607
tuning, 104, 0.0003417207335587591
tuning, 105, 0.0003376789391040802
tuning, 106, 0.00033362428075633943
tuning, 107, 0.00032973429188132286
tuning, 108, 0.0003258755896240473
tuning, 109, 0.0003219840000383556
tuning, 110, 0.00031796403345651925
tuning, 111, 0.0003141230554319918
tuning, 112, 0.000310291739879176
tuning, 113, 0.0003066297504119575
tuning, 114, 0.0003031239612028003
tuning, 115, 0.00029972605989314616
tuning, 116, 0.0002964074374176562
tuning, 117, 0.0002931233320850879
tuning, 118, 0.00028983294032514095
tuning, 119, 0.00028664967976510525
tuning, 120, 0.0002834509068634361
tuning, 121, 0.00028032693080604076
tuning, 122, 0.0002772895386442542
tuning, 123, 0.00027433852665126324
tuning, 124, 0.0002713815774768591
tuning, 125, 0.00026849185815081
tuning, 126, 0.00026566797168925405
tuning, 127, 0.0002628376241773367
tuning, 128, 0.00026009461726062
tuning, 129, 0.00025742361322045326
tuning, 130, 0.000254814192885533
tuning, 131, 0.0002522122231312096
tuning, 132, 0.00024971316452138126
tuning, 133, 0.0002472147752996534
tuning, 134, 0.0002447549777571112
tuning, 135, 0.00024234026204794645
tuning, 136, 0.00023996373056434095
tuning, 137, 0.00023764395155012608
tuning, 138, 0.00023537257220596075
tuning, 139, 0.00023310013057198375
tuning, 140, 0.00023088573652785271
tuning, 141, 0.00022869107488077134
tuning, 142, 0.00022652877669315785
tuning, 143, 0.00022446030925493687
tuning, 144, 0.00022236883523873985
tuning, 145, 0.00022032787092030048
tuning, 146, 0.00021833550999872386
tuning, 147, 0.00021638275939039886
tuning, 148, 0.00021444114099722356
tuning, 149, 0.00021255220053717494
tuning, 150, 0.00021066758199594915
tuning, 151, 0.00020882158423773944
tuning, 152, 0.00020699872402474284
tuning, 153, 0.0002051813353318721
tuning, 154, 0.00020341621711850166
tuning, 155, 0.00020170933566987514
tuning, 156, 0.00019999667711090297
tuning, 157, 0.00019828158838208765
tuning, 158, 0.00019661319674924016
tuning, 159, 0.00019499633344821632
tuning, 160, 0.00019338956917636096
tuning, 161, 0.00019182443793397397
tuning, 162, 0.00019026160589419305
tuning, 163, 0.00018875417299568653
tuning, 164, 0.00018721132073551416
tuning, 165, 0.00018572749104350805
tuning, 166, 0.00018426688620820642
tuning, 167, 0.00018281949451193213
tuning, 168, 0.00018140158499591053
tuning, 169, 0.00018001410353463143
tuning, 170, 0.00017863557150121778
tuning, 171, 0.00017724776989780366
tuning, 172, 0.00017590602510608733
tuning, 173, 0.00017457827925682068
tuning, 174, 0.00017327509704045951
tuning, 175, 0.00017197667330037802
tuning, 176, 0.0001707141345832497
tuning, 177, 0.00016944922390393913
tuning, 178, 0.00016820791643112898
tuning, 179, 0.00016698548279237002
tuning, 180, 0.00016576104098930955
tuning, 181, 0.0001645965239731595
tuning, 182, 0.00016343107563443482
tuning, 183, 0.00016224711725953966
tuning, 184, 0.00016110064461827278
tuning, 185, 0.00015995460853446275
tuning, 186, 0.00015888111374806613
tuning, 187, 0.0001577688381075859
tuning, 188, 0.00015668779087718576
tuning, 189, 0.00015562692715320736
tuning, 190, 0.00015457093832083046
tuning, 191, 0.00015351956244558096
tuning, 192, 0.00015249343414325267
tuning, 193, 0.00015147269004955888
tuning, 194, 0.00015045361942611635
tuning, 195, 0.00014945818111300468
tuning, 196, 0.00014847613056190312
tuning, 197, 0.00014749693218618631
tuning, 198, 0.00014653624384664
tuning, 199, 0.0001455923484172672
tuning, 200, 0.00014465153799392283
tuning, 201, 0.00014373331214301288
tuning, 202, 0.00014280981849879026
tuning, 203, 0.00014188408385962248
tuning, 204, 0.00014098823885433376
tuning, 205, 0.00014009584265295416
tuning, 206, 0.000139211057103239
tuning, 207, 0.00013833632692694664
tuning, 208, 0.00013746149488724768
tuning, 209, 0.00013661195407621562
tuning, 210, 0.00013578242214862257
tuning, 211, 0.00013492151629179716
tuning, 212, 0.00013408919039648026
tuning, 213, 0.00013324254541657865
tuning, 214, 0.00013244024012237787
tuning, 215, 0.00013161437527742237
tuning, 216, 0.00013081634824629873
tuning, 217, 0.0001300097064813599
tuning, 218, 0.00012920958397444338
tuning, 219, 0.00012841580610256642
tuning, 220, 0.000127671446534805
tuning, 221, 0.00012688312563113868
tuning, 222, 0.00012609257828444242
tuning, 223, 0.00012535398127511144
tuning, 224, 0.00012460794823709875
tuning, 225, 0.00012381163833197206
tuning, 226, 0.00012307811994105577
tuning, 227, 0.00012231545406393707
tuning, 228, 0.0001215737866004929
tuning, 229, 0.00012084619083907455
tuning, 230, 0.00012013006198685616
tuning, 231, 0.00011940328840864822
tuning, 232, 0.0001186935551231727
tuning, 233, 0.00011798450577771291
tuning, 234, 0.00011726694356184453
tuning, 235, 0.00011659197480184957
tuning, 236, 0.00011586546315811574
tuning, 237, 0.00011519057443365455
tuning, 238, 0.00011450961756054312
tuning, 239, 0.00011383211676729843
tuning, 240, 0.00011314265429973602
tuning, 241, 0.00011247169459238648
tuning, 242, 0.00011179738066857681
tuning, 243, 0.00011114960943814367
tuning, 244, 0.00011048775922972709
tuning, 245, 0.00010983957326970994
tuning, 246, 0.00010918725456576794
tuning, 247, 0.00010853847925318405
tuning, 248, 0.00010792214015964419
tuning, 249, 0.00010727854532888159
tuning, 250, 0.00010661274427548051
tuning, 251, 0.00010598164953989908
tuning, 252, 0.00010535510227782652
tuning, 253, 0.0001047302721417509
tuning, 254, 0.00010410364484414458
tuning, 255, 0.00010347321949666366
tuning, 256, 0.00010286323231412098
tuning, 257, 0.0001022498108795844
tuning, 258, 0.0001016202149912715
tuning, 259, 0.00010101053339894861
tuning, 260, 0.0001004116129479371
tuning, 261, 9.982431947719306e-05
tuning, 262, 9.919883450493217e-05
tuning, 263, 9.860360296443105e-05
tuning, 264, 9.800036787055433e-05
tuning, 265, 9.740279347170144e-05
tuning, 266, 9.679840877652168e-05
tuning, 267, 9.621086064726114e-05
tuning, 268, 9.560773469274864e-05
tuning, 269, 9.501585736870766e-05
tuning, 270, 9.441783186048269e-05
tuning, 271, 9.383310680277646e-05
tuning, 272, 9.322719415649772e-05
tuning, 273, 9.264257096219808e-05
tuning, 274, 9.204752859659493e-05
tuning, 275, 9.144288924289867e-05
tuning, 276, 9.087946818908677e-05
tuning, 277, 9.028874046634883e-05
tuning, 278, 8.970378985395655e-05
tuning, 279, 8.911240729503334e-05
tuning, 280, 8.853140025166795e-05
tuning, 281, 8.794149471214041e-05
tuning, 282, 8.736393647268414e-05
tuning, 283, 8.676909783389419e-05
tuning, 284, 8.617537969257683e-05
tuning, 285, 8.559385605622083e-05
tuning, 286, 8.498366514686495e-05
tuning, 287, 8.439612429356202e-05
tuning, 288, 8.382353553315625e-05
tuning, 289, 8.323862857650965e-05
tuning, 290, 8.270458783954382e-05
tuning, 291, 8.21063295006752e-05
tuning, 292, 8.155201066983864e-05
tuning, 293, 8.100322884274647e-05
tuning, 294, 8.045969298109412e-05
tuning, 295, 7.994288898771629e-05
tuning, 296, 7.942076626932248e-05
tuning, 297, 7.889847620390356e-05
tuning, 298, 7.837689918233082e-05
tuning, 299, 7.788111543050036e-05
tuning, 300, 7.735153485555202e-05
tuning, 301, 7.685104355914518e-05
tuning, 302, 7.63250864110887e-05
tuning, 303, 7.583641854580492e-05
tuning, 304, 7.531620940426365e-05
tuning, 305, 7.481346256099641e-05
tuning, 306, 7.432226266246289e-05
tuning, 307, 7.38303133402951e-05
tuning, 308, 7.332663517445326e-05
tuning, 309, 7.282584556378424e-05
tuning, 310, 7.234119402710348e-05
tuning, 311, 7.183555862866342e-05
tuning, 312, 7.13806803105399e-05
tuning, 313, 7.083590026013553e-05
tuning, 314, 7.035523594822735e-05
tuning, 315, 6.987803499214351e-05
tuning, 316, 6.939044396858662e-05
tuning, 317, 6.892732926644385e-05

 10%|███████████                                                                                                   | 1/10 [02:33<23:02, 153.66s/it]
tuning, 319, 6.799367838539183e-05
inversion time : 152.1790316104889
0, 0.1123598963022232
1, 0.1123598963022232
2, 0.10478761792182922
3, 0.09046938270330429
4, 0.0712452083826065
5, 0.05020028352737427
6, 0.031469374895095825
7, 0.02033148892223835
8, 0.014870977960526943
9, 0.012927670031785965
10, 0.012783793732523918
11, 0.01332574151456356
12, 0.013953045010566711
13, 0.014398942701518536
14, 0.014577396214008331
15, 0.014498951844871044
16, 0.014208799228072166
17, 0.013764796778559685
18, 0.013220660388469696
19, 0.012617887929081917
20, 0.011984959244728088
21, 0.011342472396790981
22, 0.010704927146434784
23, 0.010080946609377861
24, 0.009478825144469738
25, 0.008904565125703812
26, 0.008363650180399418
27, 0.007860453799366951
28, 0.007398990448564291
29, 0.00697921309620142
30, 0.006601210217922926
31, 0.006263100542128086
32, 0.0059609487652778625
33, 0.005690131336450577
34, 0.005446713417768478
35, 0.005226313602179289
36, 0.005024898797273636
37, 0.004839508794248104
38, 0.004667523317039013
39, 0.004507413133978844
40, 0.004358044825494289
41, 0.004218814894556999
42, 0.004088735207915306
43, 0.003967517055571079
44, 0.0038547050207853317
45, 0.003749918658286333
46, 0.003653003601357341
47, 0.003563526552170515
48, 0.003481253981590271
49, 0.0034058522433042526
50, 0.003336682915687561
51, 0.0032735057175159454
52, 0.0032159171532839537
53, 0.003163520246744156
54, 0.0031159184873104095
55, 0.0030728038400411606
56, 0.0030337125062942505
57, 0.002998391631990671
58, 0.002966504544019699
59, 0.002937753451988101
60, 0.0029119178652763367
61, 0.00288877310231328
62, 0.002868114737793803
63, 0.0028497278690338135
64, 0.00283347861841321
65, 0.0028191073797643185
66, 0.0028065552469342947
67, 0.0027956420090049505
68, 0.002786269411444664
69, 0.0027783093973994255
70, 0.002771585714071989
71, 0.0027660089544951916
72, 0.0027615176513791084
73, 0.00275795953348279
74, 0.0027552235405892134
75, 0.002753177657723427
76, 0.0027517748530954123
77, 0.0027508640196174383
78, 0.0027503403834998608
79, 0.0027501366566866636
0 2.7345898151397705 0.05 8.129813194274902
1 2.5725653171539307 0.05 7.194969177246094
2 2.4014599323272705 0.05 6.269700050354004
3 2.207428216934204 0.05 5.297479629516602
4 1.9650969505310059 0.05 4.198209762573242
5 1.6147795915603638 0.05 2.834801435470581
6 1.217708945274353 0.05 1.6120669841766357
7 0.8883278369903564 0.05 0.8579118251800537
8 0.7247251272201538 0.05 0.5710088014602661
9 0.6094768047332764 0.05 0.403841108083725
tuning, 0, 0.034005649387836456
tuning, 1, 0.030672799795866013
tuning, 2, 0.027712559327483177
tuning, 3, 0.025114592164754868
tuning, 4, 0.022852879017591476
tuning, 5, 0.02089107595384121
tuning, 6, 0.019197799265384674
tuning, 7, 0.017739146947860718
tuning, 8, 0.016483353450894356
tuning, 9, 0.01539436262100935
tuning, 10, 0.014436639845371246
tuning, 11, 0.013584233820438385
tuning, 12, 0.012811370193958282
tuning, 13, 0.012104800902307034
tuning, 14, 0.011450197547674179
tuning, 15, 0.010844044387340546
tuning, 16, 0.010282563045620918
tuning, 17, 0.00976218469440937
tuning, 18, 0.00928097777068615
tuning, 19, 0.008835962042212486
tuning, 20, 0.008426575921475887
tuning, 21, 0.008048560470342636
tuning, 22, 0.00770058436319232
tuning, 23, 0.007379225920885801
tuning, 24, 0.007084151729941368
tuning, 25, 0.006811866071075201
tuning, 26, 0.0065623982809484005
tuning, 27, 0.006332217715680599
tuning, 28, 0.006120780017226934
tuning, 29, 0.005926503799855709
tuning, 30, 0.00574796786531806
tuning, 31, 0.005584331229329109
tuning, 32, 0.005433111451566219
tuning, 33, 0.005294035654515028
tuning, 34, 0.005164834670722485
tuning, 35, 0.005044326186180115
tuning, 36, 0.004931373987346888
tuning, 37, 0.004825562238693237
tuning, 38, 0.004725847393274307
tuning, 39, 0.004632019437849522
tuning, 40, 0.004543992690742016
tuning, 41, 0.004461231641471386
tuning, 42, 0.0043833013623952866
tuning, 43, 0.004310030024498701
tuning, 44, 0.004240608774125576
tuning, 45, 0.004174858331680298
tuning, 46, 0.0041121020913124084
tuning, 47, 0.004052591510117054
tuning, 48, 0.003995602950453758
tuning, 49, 0.003940891474485397
tuning, 50, 0.0038887583650648594
tuning, 51, 0.0038388222455978394
tuning, 52, 0.0037909611128270626
tuning, 53, 0.003744938876479864
tuning, 54, 0.003700852394104004
tuning, 55, 0.0036583184264600277
tuning, 56, 0.0036171255633234978
tuning, 57, 0.0035772807896137238
tuning, 58, 0.003538477700203657
tuning, 59, 0.003500965889543295
tuning, 60, 0.003464244306087494
tuning, 61, 0.0034287681337445974
tuning, 62, 0.00339425727725029
tuning, 63, 0.003360668895766139
tuning, 64, 0.003328230232000351
tuning, 65, 0.0032964739948511124
tuning, 66, 0.0032659766729921103
tuning, 67, 0.0032362451311200857
tuning, 68, 0.0032074502669274807
tuning, 69, 0.0031795683316886425
tuning, 70, 0.003152398858219385
tuning, 71, 0.003126049181446433
tuning, 72, 0.00310027739033103
tuning, 73, 0.003075325395911932
tuning, 74, 0.0030510767828673124
tuning, 75, 0.003027429571375251
tuning, 76, 0.0030043120495975018
tuning, 77, 0.002981835976243019
tuning, 78, 0.00295984442345798
tuning, 79, 0.0029384857043623924
tuning, 80, 0.0029171963687986135
tuning, 81, 0.0028964406810700893
tuning, 82, 0.0028760270215570927
tuning, 83, 0.002856045961380005
tuning, 84, 0.002836498897522688
tuning, 85, 0.0028172589372843504
tuning, 86, 0.0027986157219856977
tuning, 87, 0.002780129201710224
tuning, 88, 0.0027622245252132416
tuning, 89, 0.002744632540270686
tuning, 90, 0.0027272640727460384
tuning, 91, 0.0027101808227598667
tuning, 92, 0.002693488961085677
tuning, 93, 0.0026770641561597586
tuning, 94, 0.0026608076877892017
tuning, 95, 0.002644912339746952
tuning, 96, 0.002629296388477087
tuning, 97, 0.002613687887787819
tuning, 98, 0.0025985061656683683
tuning, 99, 0.002583692781627178
tuning, 100, 0.0025687392335385084
tuning, 101, 0.0025542951188981533
tuning, 102, 0.0025400237645953894
tuning, 103, 0.002525826683267951
tuning, 104, 0.002511929254978895
tuning, 105, 0.002498054876923561
tuning, 106, 0.0024845758453011513
tuning, 107, 0.002471204847097397
tuning, 108, 0.002458078321069479
