
  0%|                                                                                                                                                                                                                                                                                            | 0/10 [00:00<?, ?it/s]
0, 0.1364392638206482
1, 0.1364392638206482
2, 0.1297924518585205
3, 0.11694812029600143
4, 0.0989360436797142
5, 0.07756023108959198
6, 0.0554962120950222
7, 0.038769371807575226
8, 0.027032870799303055
9, 0.019468270242214203
10, 0.015013538300991058
11, 0.0126213189214468
12, 0.011441606096923351
13, 0.010877068154513836
14, 0.010553278028964996
15, 0.010261332616209984
16, 0.00989650096744299
17, 0.009427634999155998
18, 0.00886451080441475
19, 0.008234651759266853
20, 0.007574161048978567
21, 0.006915112026035786
22, 0.006289591547101736
23, 0.005724491085857153
24, 0.005234061740338802
25, 0.004822931252419949
26, 0.004488778300583363
27, 0.004223375581204891
28, 0.004013517405837774
29, 0.0038442923687398434
30, 0.0037005250342190266
31, 0.0035691545344889164
32, 0.0034393935929983854
33, 0.0033043872099369764
34, 0.003160529537126422
35, 0.0030071367509663105
36, 0.0028457974549382925
37, 0.0026799605693668127
38, 0.0025135711766779423
39, 0.00235077366232872
40, 0.0021956106647849083
41, 0.002051185816526413
42, 0.00191974313929677
43, 0.0018022130243480206
44, 0.0016985030379146338
45, 0.0016075875610113144
46, 0.001527950051240623
47, 0.0014575797831639647
48, 0.0013943378580734134
49, 0.001336375018581748
50, 0.0012820834526792169
51, 0.0012305638520047069
52, 0.0011811766307801008
53, 0.0011337853502482176
54, 0.0010885325027629733
55, 0.0010455737356096506
56, 0.0010052050929516554
57, 0.0009675173787400126
58, 0.0009326115250587463
59, 0.0009002763545140624
60, 0.0008702698396518826
61, 0.0008422344690188766
62, 0.0008158327545970678
63, 0.0007908083498477936
64, 0.0007668623002246022
65, 0.0007438517059199512
66, 0.0007216744124889374
67, 0.0007004361832514405
68, 0.0006801459821872413
69, 0.0006608987459912896
70, 0.0006428419146686792
71, 0.0006259346846491098
72, 0.0006102476618252695
73, 0.0005956372478976846
74, 0.00058208336122334
75, 0.000569423136767
76, 0.0005575662362389266
77, 0.0005463870475068688
78, 0.0005357896443456411
79, 0.0005256861331872642
80, 0.0005159996799193323
81, 0.00050671974895522
82, 0.0004978376091457903
83, 0.0004893429577350616
84, 0.0004812220577150583
85, 0.0004734878893941641
86, 0.0004660695558413863
87, 0.0004590007883962244
88, 0.0004522375238593668
89, 0.00044575007632374763
90, 0.00043953186832368374
91, 0.0004335576086305082
92, 0.00042780814692378044
93, 0.0004222708521410823
94, 0.0004169261083006859
95, 0.00041175592923536897
96, 0.0004067376139573753
97, 0.00040186382830142975
98, 0.00039714324520900846
99, 0.00039257013122551143
100, 0.0003880898002535105
101, 0.0003837641270365566
102, 0.0003795783268287778
103, 0.000375515257474035
104, 0.0003715684579219669
105, 0.00036773382453247905
106, 0.0003640356590040028
107, 0.0003604245139285922
108, 0.00035691523225978017
109, 0.0003534647112246603
110, 0.000350109621649608
111, 0.000346826360328123
112, 0.00034361029975116253
113, 0.00034047028748318553
114, 0.0003373996296431869
115, 0.0003344057477079332
116, 0.00033146527130156755
117, 0.00032860838109627366
118, 0.00032580760307610035
119, 0.00032306622597388923
120, 0.000320378749165684
121, 0.0003177519829478115
122, 0.0003151626151520759
123, 0.0003126303490716964
124, 0.00031014636624604464
125, 0.00030770397279411554
126, 0.0003053118125535548
127, 0.0003029638610314578
128, 0.0003006607003044337
129, 0.00029839316266588867
130, 0.00029617786640301347
131, 0.0002940045960713178
132, 0.0002918784157373011
133, 0.00028978523914702237
134, 0.00028772008954547346
135, 0.00028569591813720763
136, 0.0002837047213688493
137, 0.00028173974715173244
138, 0.0002798215136863291
139, 0.0002779352362267673
140, 0.0002760755887720734
141, 0.0002742570941336453
142, 0.0002724578371271491
143, 0.00027069172938354313
144, 0.00026896013878285885
145, 0.0002672441187314689
146, 0.0002655753050930798
147, 0.0002639181329868734
148, 0.00026230805087834597
149, 0.00026070931926369667
150, 0.00025913561694324017
151, 0.0002575900580268353
152, 0.00025607619318179786
153, 0.0002545757160987705
154, 0.0002531061472836882
155, 0.00025165226543322206
156, 0.00025022251065820456
157, 0.000248807918978855
158, 0.0002474194625392556
159, 0.00024605292128399014
160, 0.00024469790514558554
161, 0.00024335330817848444
162, 0.00024203052453231066
163, 0.00024072168162092566
164, 0.00023942293773870915
165, 0.00023815140593796968
166, 0.00023690010129939765
167, 0.0002356452023377642
168, 0.00023440293443854898
169, 0.00023318463354371488
170, 0.00023197600967250764
171, 0.000230771693168208
172, 0.00022958195768296719
173, 0.00022841006284579635
174, 0.0002272456040373072
175, 0.00022609687584917992
176, 0.0002249444369226694
177, 0.00022380086011253297
178, 0.0002226716314908117
179, 0.00022154764155857265
180, 0.0002204340125899762
181, 0.0002193468390032649
182, 0.00021827993623446673
183, 0.0002172296808566898
184, 0.00021618288883473724
185, 0.0002151523221982643
186, 0.00021413061767816544
187, 0.00021312999888323247
188, 0.0002121380966855213
189, 0.000211144273635
190, 0.00021017633844166994
191, 0.00020921896793879569
192, 0.0002082723513012752
193, 0.00020734895952045918
194, 0.00020643298921640962
195, 0.00020553577633108944
196, 0.00020465445413719863
197, 0.00020377097825985402
198, 0.0002029119641520083
199, 0.00020206524641253054
200, 0.0002012160693993792
201, 0.00020038633374497294
202, 0.0001995676866499707
203, 0.0001987538707908243
204, 0.00019795742991846055
205, 0.0001971731398953125
206, 0.00019639855599962175
207, 0.00019563498790375888
208, 0.00019487155077513307
209, 0.00019412643450777978
210, 0.00019338561105541885
211, 0.00019265808805357665
212, 0.00019194631022401154
213, 0.00019123332458548248
214, 0.00019053311552852392
215, 0.00018984165217261761
216, 0.00018915328837465495
217, 0.00018847952014766634
218, 0.00018781039398163557
219, 0.00018715017358772457
220, 0.0001865018712123856
221, 0.00018586206715554
222, 0.00018521845049690455
223, 0.0001846019586082548
224, 0.0001839843753259629
225, 0.0001833703718148172
226, 0.0001827736123232171
227, 0.0001821822370402515
228, 0.00018159669707529247
229, 0.00018102178000845015
230, 0.00018044808530248702
231, 0.00017988841864280403
232, 0.00017933157505467534
233, 0.00017878196376841515
234, 0.00017824143287725747
235, 0.00017770739214029163
236, 0.00017717613081913441
237, 0.00017664706683717668
238, 0.00017612909141462296
239, 0.00017561402637511492
240, 0.00017510603356640786
241, 0.00017460304661653936
242, 0.00017410851432941854
243, 0.00017361671780236065
244, 0.00017313173157162964
245, 0.0001726585323922336
246, 0.00017218505672644824
247, 0.00017172194202430546
248, 0.00017126576858572662
249, 0.00017079777899198234
250, 0.00017033587209880352
251, 0.0001698937121545896
252, 0.0001694525417406112
253, 0.00016901156050153077
254, 0.00016858118760865182
255, 0.00016815064009279013
256, 0.00016773422248661518
257, 0.00016730323841329664
258, 0.00016689294716343284
259, 0.00016647312440909445
260, 0.00016607175348326564
261, 0.00016566456179134548
262, 0.00016526463150512427
263, 0.0001648684119572863
264, 0.00016448646783828735
265, 0.00016410197713412344
266, 0.00016371380479540676
267, 0.00016333567327819765
268, 0.00016296387184411287
269, 0.0001625862787477672
270, 0.00016222499834839255
271, 0.00016186069115065038
272, 0.00016149843577295542
273, 0.00016113740275613964
274, 0.00016079237684607506
275, 0.00016043880896177143
276, 0.00016009456885512918
277, 0.0001597515365574509
278, 0.00015941049787215889
279, 0.0001590668980497867
280, 0.0001587430597282946
281, 0.00015841680578887463
282, 0.00015808652096893638
283, 0.0001577639050083235
284, 0.00015744101256132126
285, 0.00015712791355326772
286, 0.00015681132208555937
287, 0.00015650075511075556
288, 0.00015619568875990808
289, 0.00015588736278004944
290, 0.00015558538143523037
291, 0.00015528238145634532
292, 0.00015498869470320642
293, 0.00015468400670215487
294, 0.0001543944381410256
295, 0.00015410529158543795
296, 0.00015381810953840613
297, 0.00015353260096162558
298, 0.00015324822743423283
299, 0.00015297239588107914
300, 0.00015268426795955747
301, 0.00015241149230860174
302, 0.00015213803271763027
303, 0.00015185572556219995
304, 0.00015159512986429036
305, 0.00015132263069972396
306, 0.00015105365309864283
307, 0.00015078551950864494
308, 0.00015051641094032675
309, 0.00015026013716123998
310, 0.00014999424456618726
311, 0.00014973401266615838
312, 0.00014947180170565844
313, 0.00014921401452738792
314, 0.0001489529386162758
315, 0.00014869935694150627
316, 0.0001484409294789657
317, 0.00014818301133345813
318, 0.00014793254376854748
319, 0.00014767219545319676
320, 0.00014740978076588362
321, 0.00014715625729877502
322, 0.0001468992850277573
323, 0.00014664458285551518
324, 0.00014639197615906596
325, 0.00014614440442528576
326, 0.00014589869533665478
327, 0.00014565374294761568
328, 0.0001454121374990791
329, 0.00014516166993416846
330, 0.0001449266419513151
331, 0.00014469027519226074
332, 0.000144451143569313
333, 0.00014421995729207993
334, 0.00014399031351786107
335, 0.0001437545579392463
336, 0.00014351886056829244
337, 0.00014329614350572228
338, 0.00014307250967249274
339, 0.0001428502146154642
340, 0.00014263435150496662
341, 0.0001424172951374203
342, 0.0001422127097612247
343, 0.0001420088083250448
344, 0.00014180711877997965
345, 0.00014160601131152362
346, 0.00014140934217721224
347, 0.00014121552521828562
348, 0.0001410225813742727
349, 0.00014083337737247348
350, 0.0001406536321155727
351, 0.00014047359582036734
352, 0.00014029815793037415
353, 0.00014012455358169973
354, 0.0001399582251906395
355, 0.00013979437062516809
356, 0.00013963552191853523
357, 0.00013947371917311102
358, 0.0001393083221046254
359, 0.00013915079762227833
360, 0.00013900487101636827
361, 0.0001388561213389039
362, 0.00013870754628442228
363, 0.0001385658688377589
364, 0.00013841860345564783
365, 0.00013827465591020882
366, 0.0001381422480335459
367, 0.00013800909800920635
368, 0.00013787149509880692
369, 0.000137742463266477
370, 0.00013761318405158818
371, 0.0001374878193018958
372, 0.00013735862739849836
373, 0.00013723198208026588
374, 0.00013711306382901967
375, 0.0001369936508126557
376, 0.00013688273611478508
377, 0.00013676051457878202
378, 0.0001366471842629835
379, 0.00013653803034685552
380, 0.00013643175770994276
381, 0.00013632464106194675
382, 0.00013620994286611676
383, 0.00013611005851998925
384, 0.0001360044116154313
385, 0.00013590486196335405
386, 0.0001358073204755783
387, 0.0001357153378194198
388, 0.00013562184176407754
389, 0.00013552571181207895
390, 0.00013543266686610878
391, 0.0001353383413515985
392, 0.0001352544641122222
393, 0.00013516543549485505
394, 0.000135080044856295
395, 0.00013499562919605523
396, 0.00013490748824551702
397, 0.00013482912618201226
398, 0.00013475044397637248
399, 0.00013466892414726317
400, 0.00013460252375807613
401, 0.00013452209532260895
402, 0.0001344464544672519
403, 0.0001343780750175938
404, 0.0001343051844742149
405, 0.00013423699419945478
406, 0.00013416746514849365
407, 0.00013410164683591574
408, 0.00013403341290540993
409, 0.00013396945723798126
410, 0.00013391008542384952
411, 0.00013385091733653098
412, 0.0001337919820798561
413, 0.0001337318099103868
414, 0.0001336730783805251
415, 0.00013361683522816747
416, 0.00013355992268770933
417, 0.00013351364759728312
418, 0.00013346096966415644
419, 0.00013341182784643024
420, 0.00013335792755242437
421, 0.00013331446098163724
422, 0.00013327031047083437
423, 0.0001332216343143955
424, 0.00013317677075974643
425, 0.00013312649389263242
426, 0.00013308960478752851
427, 0.00013304529420565814
428, 0.00013300636783242226
429, 0.00013296588440425694
430, 0.00013292724906932563
431, 0.00013288899208419025
432, 0.0001328543439740315
433, 0.0001328170910710469
434, 0.00013278068217914551
435, 0.00013274973025545478
436, 0.00013272216892801225
437, 0.00013268596376292408
438, 0.0001326595520367846
439, 0.00013262807624414563
440, 0.000132596556795761
441, 0.00013256954844109714
442, 0.00013254470832180232
443, 0.00013252021744847298
444, 0.00013249255425762385
445, 0.0001324693439528346
446, 0.0001324462064076215
447, 0.00013242203567642719
448, 0.00013239789404906332
449, 0.0001323738251812756
450, 0.0001323595643043518
451, 0.00013233892968855798
452, 0.00013231878983788192
453, 0.00013230412150733173
454, 0.0001322871830780059
455, 0.0001322672178503126
456, 0.00013225054135546088
457, 0.00013223220594227314
458, 0.00013222072448115796
459, 0.00013220465916674584
460, 0.00013219722313806415
461, 0.00013218214735388756
462, 0.00013217123341746628
463, 0.00013215998478699476
464, 0.00013214591308496892
465, 0.00013213558122515678
466, 0.00013212693738751113
467, 0.00013211868645157665
468, 0.00013210813631303608
469, 0.00013210170436650515
470, 0.00013209397729951888
471, 0.0001320870069321245
472, 0.00013207795564085245
473, 0.00013207588926889002
474, 0.00013206832227297127
475, 0.00013205617142375559
476, 0.00013205528375692666
477, 0.0001320511510130018
478, 0.00013204562128521502
479, 0.00013204410788603127
480, 0.00013204175047576427
481, 0.00013203568232711405
482, 0.00013203061826061457
483, 0.00013202990521676838
484, 0.00013202830450609326
485, 0.00013202492846176028
486, 0.0001320227311225608
487, 0.00013202267291489989
488, 0.00013201707042753696
489, 0.00013201709953136742
490, 0.000132016881252639
491, 0.00013201151159591973
492, 0.0001320107257924974
493, 0.0001320163137279451
494, 0.0001320138544542715
495, 0.00013201424735598266
496, 0.0001320139563176781
497, 0.00013201382535044104
498, 0.0001320165174547583
499, 0.00013201373803894967
0 2.623626470565796 0.05 7.88133430480957
1 2.4626920223236084 0.05 6.944099426269531
2 2.293931007385254 0.05 6.024991035461426
3 2.093693971633911 0.05 5.019057273864746
4 1.8243141174316406 0.05 3.810614585876465
5 1.4279344081878662 0.05 2.334599018096924
6 0.9879255890846252 0.05 1.1174914836883545
7 0.6630667448043823 0.05 0.5033966302871704
8 0.5336450338363647 0.05 0.3260624408721924
9 0.44361594319343567 0.05 0.225325345993042
10 0.3746785521507263 0.05 0.1607361137866974
11 0.3249993622303009 0.05 0.12093745172023773
12 0.28577813506126404 0.05 0.09350907057523727
13 0.25392791628837585 0.05 0.07382724434137344
14 0.2285163551568985 0.05 0.059790246188640594
15 0.20853771269321442 0.05 0.04979261755943298
16 0.1926259845495224 0.05 0.04248400777578354
17 0.17964255809783936 0.05 0.03694998100399971
18 0.1687551885843277 0.05 0.03260693699121475
19 0.1594054400920868 0.05 0.0290939062833786
20 0.1512337476015091 0.05 0.02618744783103466
21 0.14397966861724854 0.05 0.02373548597097397
22 0.1374942809343338 0.05 0.021645372733473778
23 0.1316005140542984 0.05 0.019829461351037025
24 0.1262456327676773 0.05 0.018248552456498146
25 0.12132106721401215 0.05 0.01685265079140663
26 0.11680534482002258 0.05 0.015621444210410118
27 0.11260854452848434 0.05 0.014519058167934418
28 0.10871969163417816 0.05 0.013533564284443855
29 0.10509171336889267 0.05 0.012645403854548931
30 0.10170311480760574 0.05 0.011843068525195122
31 0.09851347655057907 0.05 0.011111867614090443
32 0.09551732987165451 0.05 0.010446242988109589
33 0.0927015021443367 0.05 0.009839414618909359
34 0.09002738445997238 0.05 0.00927993655204773
35 0.08750812709331512 0.05 0.008767839521169662
36 0.08510274440050125 0.05 0.00829245150089264
37 0.08281806856393814 0.05 0.007853187620639801
38 0.08064380288124084 0.05 0.007446252275258303
39 0.0785573422908783 0.05 0.007065929938107729
40 0.07657875865697861 0.05 0.006714479997754097
41 0.07466942071914673 0.05 0.00638382975012064
42 0.07283653318881989 0.05 0.006074272561818361
43 0.07109162956476212 0.05 0.005786723457276821
44 0.06938931345939636 0.05 0.005512910895049572
45 0.06776954233646393 0.05 0.0052585359662771225
46 0.06619758903980255 0.05 0.005017416086047888
47 0.06468121707439423 0.05 0.0047901831567287445
48 0.06321240961551666 0.05 0.004575098864734173
49 0.06181029975414276 0.05 0.004374390002340078
50 0.06043729931116104 0.05 0.0041822106577456
51 0.05911412835121155 0.05 0.004001090303063393
52 0.05783618241548538 0.05 0.0038299669977277517
53 0.056592926383018494 0.05 0.003667077049612999
54 0.05539154261350632 0.05 0.003513036295771599
55 0.05421768128871918 0.05 0.003365717362612486
56 0.05310119315981865 0.05 0.0032285263296216726
57 0.051991499960422516 0.05 0.0030949984211474657
58 0.05092384293675423 0.05 0.0029691909439861774
59 0.04990120232105255 0.05 0.0028511350974440575
60 0.04888499900698662 0.05 0.0027361945249140263
61 0.04790704324841499 0.05 0.002627813257277012
62 0.04696156457066536 0.05 0.0025251128245145082
63 0.04603816568851471 0.05 0.002426787745207548
64 0.04513497278094292 0.05 0.00233250274322927
65 0.044270966202020645 0.05 0.0022440564353019
66 0.04340734705328941 0.05 0.002157358219847083
67 0.042591072618961334 0.05 0.0020769829861819744
68 0.04177819937467575 0.05 0.001998458756133914
69 0.040989555418491364 0.05 0.0019237215165048838
70 0.04024925082921982 0.05 0.0018548609223216772
71 0.03947807103395462 0.05 0.0017844631802290678
72 0.03877328336238861 0.05 0.00172131706494838
73 0.03804760426282883 0.05 0.0016574880573898554
74 0.037374187260866165 0.05 0.0015993345296010375
75 0.03669526427984238 0.05 0.001541756559163332
76 0.03604710102081299 0.05 0.0014877724461257458
77 0.03540213033556938 0.05 0.0014350087149068713
78 0.0347801074385643 0.05 0.001385024981573224
79 0.034167319536209106 0.05 0.0013366496423259377
80 0.03357376158237457 0.05 0.001290612039156258
81 0.03300054743885994 0.05 0.0012469182256609201
82 0.03242535889148712 0.05 0.0012038303539156914
83 0.03188614919781685 0.05 0.001164125744253397
84 0.031336210668087006 0.05 0.0011243168264627457
85 0.03081243485212326 0.05 0.0010870457626879215
86 0.0302993543446064 0.05 0.0010511446744203568
87 0.029800627380609512 0.05 0.0010168259032070637
88 0.029301593080163002 0.05 0.0009830559138208628
89 0.028830399736762047 0.05 0.0009516935097053647
90 0.028348803520202637 0.05 0.0009201639913953841
91 0.027896877378225327 0.05 0.0008910600445233285
92 0.02744542621076107 0.05 0.0008624537149444222
93 0.0270083025097847 0.05 0.0008351997239515185
94 0.026570754125714302 0.05 0.0008083576103672385
95 0.026162194088101387 0.05 0.0007836895529180765
96 0.025738872587680817 0.05 0.0007585335406474769
97 0.02534737065434456 0.05 0.0007356335991062224
98 0.02494020015001297 0.05 0.0007121896487660706
99 0.024564828723669052 0.05 0.0006909128278493881
100 0.02418564446270466 0.05 0.0006697474746033549
101 0.02381432242691517 0.05 0.0006493399851024151
102 0.023448774591088295 0.05 0.0006295584607869387
103 0.023097220808267593 0.05 0.0006108227535150945
104 0.02274891920387745 0.05 0.0005925395525991917
105 0.022405100986361504 0.05 0.0005747639806941152
106 0.022068604826927185 0.05 0.0005576291587203741
107 0.021749114617705345 0.05 0.0005416002823039889
108 0.021423131227493286 0.05 0.0005254866555333138
109 0.02111453004181385 0.05 0.0005104562733322382
110 0.020799830555915833 0.05 0.000495353655423969
111 0.02050517126917839 0.05 0.00048141833394765854
112 0.020204633474349976 0.05 0.00046740961261093616
113 0.019923189654946327 0.05 0.00045447860611602664
114 0.01962698996067047 0.05 0.0004410655819810927
115 0.019358504563570023 0.05 0.00042908109026029706
116 0.019076047465205193 0.05 0.00041665113531053066
117 0.018809108063578606 0.05 0.0004050719435326755
118 0.018549732863903046 0.05 0.00039397721411660314
119 0.01828327216207981 0.05 0.00038273975951597095
120 0.018029559403657913 0.05 0.00037219104706309736
121 0.017783232033252716 0.05 0.00036209053359925747
122 0.01753510721027851 0.05 0.00035205669701099396
