
  0%|                                                                                                                                                                                                                                                                                            | 0/10 [00:00<?, ?it/s]
0, 0.1364392638206482
1, 0.1364392638206482
2, 0.1297924518585205
3, 0.11694826930761337
4, 0.09893612563610077
5, 0.07756029069423676
6, 0.05549619719386101
7, 0.03876929730176926
8, 0.027032747864723206
9, 0.019468292593955994
10, 0.015013467520475388
11, 0.01262124627828598
12, 0.011441545560956001
13, 0.010877060703933239
14, 0.010553348809480667
15, 0.010261277668178082
16, 0.009896519593894482
17, 0.009427577257156372
18, 0.008864425122737885
19, 0.008234674111008644
20, 0.007574085146188736
21, 0.006915178149938583
22, 0.006289632525295019
23, 0.005724580958485603
24, 0.005234015639871359
25, 0.004823065362870693
26, 0.004488718695938587
27, 0.004223395138978958
28, 0.004013500176370144
29, 0.0038443170487880707
30, 0.003700521308928728
31, 0.0035691193770617247
32, 0.003439377062022686
33, 0.0033044281881302595
34, 0.003160514635965228
35, 0.0030070850625634193
36, 0.0028458188753575087
37, 0.0026799438055604696
38, 0.0025135367177426815
39, 0.0023507648147642612
40, 0.0021956374403089285
41, 0.0020511916372925043
42, 0.0019197360379621387
43, 0.0018022209405899048
44, 0.0016984902322292328
45, 0.0016075832536444068
46, 0.0015279357321560383
47, 0.0014575751265510917
48, 0.0013943393714725971
49, 0.0013363778125494719
50, 0.0012820698320865631
51, 0.0012305498821660876
52, 0.0011811708100140095
53, 0.0011337820906192064
54, 0.0010885422816500068
55, 0.0010455806041136384
56, 0.001005188561975956
57, 0.0009675336768850684
58, 0.0009326020954176784
59, 0.0009002742590382695
60, 0.0008702708873897791
61, 0.0008422250393778086
62, 0.0008158355485647917
63, 0.0007908116094768047
64, 0.0007668400066904724
65, 0.0007438422180712223
66, 0.0007216755184344947
67, 0.0007004208164289594
68, 0.000680126715451479
69, 0.0006608915864489973
70, 0.0006428278284147382
71, 0.0006259287474676967
72, 0.0006102239130996168
73, 0.0005956284585408866
74, 0.000582067877985537
75, 0.0005694155115634203
76, 0.0005575590184889734
77, 0.0005463834386318922
78, 0.0005357781774364412
79, 0.0005256746080704033
80, 0.0005159961874596775
81, 0.0005067253950983286
82, 0.0004978338838554919
83, 0.0004893367877230048
84, 0.00048122293082997203
85, 0.0004734713293146342
86, 0.00046606286196038127
87, 0.0004590001190081239
88, 0.00045223673805594444
89, 0.0004457403556443751
90, 0.0004395248834043741
91, 0.0004335541161708534
92, 0.00042780995136126876
93, 0.0004222785937599838
94, 0.0004169289895799011
95, 0.000411756569519639
96, 0.0004067356640007347
97, 0.0004018635954707861
98, 0.00039714277954772115
99, 0.0003925608179997653
100, 0.0003880913136526942
101, 0.0003837646800093353
102, 0.00037957145832479
103, 0.00037550783599726856
104, 0.0003715699422173202
105, 0.00036773562896996737
106, 0.0003640421200543642
107, 0.0003604243975132704
108, 0.00035691307857632637
109, 0.0003534681163728237
110, 0.0003501008031889796
111, 0.00034682557452470064
112, 0.0003436140832491219
113, 0.00034047133522108197
114, 0.0003373897052370012
115, 0.00033440464176237583
116, 0.00033146305941045284
117, 0.00032860523788258433
118, 0.00032580894185230136
119, 0.00032306500361301005
120, 0.00032038349309004843
121, 0.0003177507023792714
122, 0.0003151594428345561
123, 0.00031262938864529133
124, 0.0003101426991634071
125, 0.0003077037981711328
126, 0.0003053197870030999
127, 0.0003029641811735928
128, 0.00030065953615121543
129, 0.0002983923186548054
130, 0.0002961760328616947
131, 0.00029400154016911983
132, 0.00029188033659011126
133, 0.0002897874219343066
134, 0.00028772279620170593
135, 0.0002856925129890442
136, 0.00028370763175189495
137, 0.0002817388449329883
138, 0.0002798234927468002
139, 0.00027793290792033076
140, 0.00027607797528617084
141, 0.0002742500219028443
142, 0.0002724511723499745
143, 0.00027069056523032486
144, 0.00026896080817095935
145, 0.0002672454575076699
146, 0.00026557326782494783
147, 0.00026391533901914954
148, 0.00026230100775137544
149, 0.0002607041969895363
150, 0.00025913206627592444
151, 0.00025758627452887595
152, 0.00025606228155083954
153, 0.000254573009442538
154, 0.0002530994242988527
155, 0.0002516423410270363
156, 0.00025021418696269393
157, 0.0002488005848135799
158, 0.00024740982917137444
159, 0.00024604471400380135
160, 0.00024469190975651145
161, 0.00024334830231964588
162, 0.0002420232049189508
163, 0.00024071524967439473
164, 0.00023941612744238228
165, 0.00023814835003577173
166, 0.0002368881250731647
167, 0.00023563244030810893
168, 0.0002343931409996003
169, 0.0002331726427655667
170, 0.00023195508401840925
171, 0.0002307660033693537
172, 0.0002295707236044109
173, 0.00022839903249405324
174, 0.00022723530128132552
175, 0.00022607912251260132
176, 0.00022492787684313953
177, 0.00022378622088581324
178, 0.00022265831648837775
179, 0.00022153533063828945
180, 0.00022042402997612953
181, 0.0002193361142417416
182, 0.00021826787269674242
183, 0.00021722036763094366
184, 0.00021616304002236575
185, 0.00021514060790650547
186, 0.0002141187433153391
187, 0.00021311690215952694
188, 0.00021212943829596043
189, 0.00021113897673785686
190, 0.00021016992104705423
191, 0.0002092079957947135
192, 0.0002082641003653407
193, 0.00020733437850140035
194, 0.00020642658637370914
195, 0.00020552844216581434
196, 0.00020464370027184486
197, 0.0002037649101112038
198, 0.00020290583779569715
199, 0.00020205334294587374
200, 0.00020120901172049344
201, 0.0002003852277994156
202, 0.0001995606580749154
203, 0.00019875360885635018
204, 0.00019795086700469255
205, 0.00019716988026630133
206, 0.00019639292440842837
207, 0.0001956288469955325
208, 0.00019486706878524274
209, 0.00019411853281781077
210, 0.0001933835883392021
211, 0.00019265337323304266
212, 0.00019193347543478012
213, 0.0001912307197926566
214, 0.00019052773131988943
215, 0.0001898339542094618
216, 0.00018915020336862653
217, 0.00018847027968149632
218, 0.00018781190738081932
219, 0.0001871466520242393
220, 0.00018650229321792722
221, 0.00018585901125334203
222, 0.0001852186833275482
223, 0.0001846037630457431
224, 0.0001839789911173284
225, 0.00018337118672206998
226, 0.00018277240451425314
227, 0.00018217763863503933
228, 0.0001815925061237067
229, 0.00018101953901350498
230, 0.000180447765160352
231, 0.0001798878365661949
232, 0.00017933132767211646
233, 0.00017877647769637406
234, 0.0001782371400622651
235, 0.0001777001889422536
236, 0.00017717054288368672
237, 0.0001766452332958579
238, 0.00017612750525586307
239, 0.00017561028653290123
240, 0.00017510783800389618
241, 0.00017460004892200232
242, 0.00017410883447155356
243, 0.00017361808568239212
244, 0.00017313162970822304
245, 0.00017265789210796356
246, 0.00017217817367054522
247, 0.0001717171835480258
248, 0.0001712583180051297
249, 0.00017078935343306512
250, 0.00017033253971021622
251, 0.00016988837160170078
252, 0.00016945108654908836
253, 0.0001690082426648587
254, 0.0001685799506958574
255, 0.0001681474968791008
256, 0.0001677240215940401
257, 0.00016730760398786515
258, 0.00016688827599864453
259, 0.0001664747833274305
260, 0.00016606709687039256
261, 0.00016566494014114141
262, 0.0001652700884733349
263, 0.00016486627282574773
264, 0.00016448227688670158
265, 0.00016410158423241228
266, 0.00016370868252124637
267, 0.00016333381063304842
268, 0.0001629616308491677
269, 0.00016258395044133067
270, 0.0001622192794457078
271, 0.00016186307766474783
272, 0.00016149861039593816
273, 0.0001611376937944442
274, 0.00016078811313491315
275, 0.0001604322314960882
276, 0.0001600885734660551
277, 0.00015975310816429555
278, 0.00015941268065944314
279, 0.00015907194756437093
280, 0.0001587404840392992
281, 0.0001584112469572574
282, 0.0001580891403136775
283, 0.00015776243526488543
284, 0.00015744099800940603
285, 0.0001571279572090134
286, 0.00015681351942475885
287, 0.00015650701243430376
288, 0.00015619448095094413
289, 0.000155891029862687
290, 0.00015558666200377047
291, 0.00015528776566497982
292, 0.00015499605797231197
293, 0.00015468357014469802
294, 0.0001543941325508058
295, 0.00015410441847052425
296, 0.00015381965204142034
297, 0.00015353562775999308
298, 0.00015325158892665058
299, 0.00015297174104489386
300, 0.00015268329298123717
301, 0.00015241313667502254
302, 0.00015214043378364295
303, 0.00015185787924565375
304, 0.00015159347094595432
305, 0.0001513254246674478
306, 0.0001510539441369474
307, 0.0001507860579295084
308, 0.00015052201342768967
309, 0.00015025935135781765
310, 0.00014999187260400504
311, 0.00014974112855270505
312, 0.00014947360614314675
313, 0.00014921743422746658
314, 0.00014895647473167628
315, 0.00014869903679937124
316, 0.00014844500401522964
317, 0.00014818285126239061
318, 0.000147931685205549
319, 0.00014768182882107794
320, 0.0001474143355153501
321, 0.00014715688303112984
322, 0.00014690218085888773
323, 0.0001466538815293461
324, 0.00014639733126387
325, 0.00014615121472161263
326, 0.00014590643695555627
327, 0.0001456610334571451
328, 0.00014542107237502933
329, 0.00014517089584842324
330, 0.0001449286355637014
331, 0.0001446943642804399
332, 0.0001444585941499099
333, 0.00014422924141399562
334, 0.00014399153587874025
335, 0.00014375965110957623
336, 0.00014352441939990968
337, 0.00014330229896586388
338, 0.00014308282698038965
339, 0.00014286111399997026
340, 0.00014264688070397824
341, 0.000142427918035537
342, 0.0001422163040842861
343, 0.00014201724843587726
344, 0.00014181097503751516
345, 0.0001416117011103779
346, 0.00014141549763735384
347, 0.0001412197161698714
348, 0.00014102880959399045
349, 0.00014084030408412218
350, 0.0001406526134815067
351, 0.00014048079901840538
352, 0.00014030897000338882
353, 0.00014013168402016163
354, 0.0001399633038090542
355, 0.00013979733921587467
356, 0.00013963876699563116
357, 0.0001394805294694379
358, 0.00013931532157585025
359, 0.00013915490126237273
360, 0.00013900813064537942
361, 0.00013886018132325262
362, 0.00013870876864530146
363, 0.0001385660725645721
364, 0.00013841898180544376
365, 0.000138278744998388
366, 0.00013814524572808295
367, 0.00013800807937514037
368, 0.00013787689385935664
369, 0.00013775037950836122
370, 0.00013761967420578003
371, 0.000137488532345742
372, 0.00013736441906075925
373, 0.0001372439437545836
374, 0.0001371178514091298
375, 0.00013699440751224756
376, 0.00013688235776498914
377, 0.00013677039532922208
378, 0.00013665597361978143
379, 0.00013653613859787583
380, 0.0001364360359730199
381, 0.00013632577611133456
382, 0.0001362145267194137
383, 0.00013611544272862375
384, 0.00013600992679130286
385, 0.00013590877642855048
386, 0.00013580681115854532
387, 0.0001357175497105345
388, 0.00013562447566073388
389, 0.00013552760356105864
390, 0.0001354319683741778
391, 0.00013534237223211676
392, 0.00013525770918931812
393, 0.00013516409671865404
394, 0.00013508068514056504
395, 0.0001350024831481278
396, 0.00013491749996319413
397, 0.00013483272050507367
398, 0.0001347488141618669
399, 0.00013467347889672965
400, 0.00013460003538057208
401, 0.00013453040446620435
402, 0.0001344529155176133
403, 0.00013438108726404607
404, 0.000134306465042755
405, 0.00013423767813947052
406, 0.00013416886213235557
407, 0.00013409959501586854
408, 0.0001340374437859282
409, 0.00013397738803178072
410, 0.0001339121226919815
411, 0.00013385002966970205
412, 0.00013379257870838046
413, 0.00013373255205806345
414, 0.0001336796849500388
415, 0.00013361980381887406
416, 0.0001335656561423093
417, 0.0001335144625045359
418, 0.00013345928164198995
419, 0.00013341502926778048
420, 0.00013335919356904924
421, 0.0001333140826318413
422, 0.00013327029591891915
423, 0.00013322252198122442
424, 0.00013317335105966777
425, 0.00013313247472979128
426, 0.0001330900122411549
427, 0.00013304746244102716
428, 0.00013300450518727303
429, 0.00013297346595209092
430, 0.0001329247752437368
431, 0.0001328950165770948
432, 0.000132855522679165
433, 0.00013282112195156515
434, 0.00013278471305966377
435, 0.00013275221863295883
436, 0.00013272720389068127
437, 0.00013268730253912508
438, 0.00013266029418446124
439, 0.00013262602442409843
440, 0.0001326013298239559
441, 0.00013257518003229052
442, 0.0001325454650213942
443, 0.00013252077042125165
444, 0.00013249614858068526
445, 0.0001324693876085803
446, 0.0001324481563642621
447, 0.00013242129352875054
448, 0.00013240084808785468
449, 0.00013237728853709996
450, 0.00013235829828772694
451, 0.00013234399375505745
452, 0.0001323219621554017
453, 0.000132303946884349
454, 0.00013228761963546276
455, 0.00013227213639765978
456, 0.00013225212751422077
457, 0.00013223712448962033
458, 0.00013222050620242953
459, 0.00013220873370300978
460, 0.00013219384709373116
461, 0.00013218236563261598
462, 0.00013216955994721502
463, 0.00013216141087468714
464, 0.00013214930368121713
465, 0.0001321405143244192
466, 0.00013212667545303702
467, 0.00013212120393291116
468, 0.00013211031910032034
469, 0.0001321026065852493
470, 0.00013209364260546863
471, 0.0001320883457083255
472, 0.00013207722804509103
473, 0.00013207676238380373
474, 0.00013206937001086771
475, 0.00013206370931584388
476, 0.00013206055155023932
477, 0.00013204937567934394
478, 0.0001320465817116201
479, 0.0001320413575740531
480, 0.00013204076094552875
481, 0.00013203671551309526
482, 0.00013203456182964146
483, 0.00013202943955548108
484, 0.00013202551053836942
485, 0.0001320221199421212
486, 0.00013202556874603033
487, 0.00013202248374000192
488, 0.00013202463742345572
489, 0.00013201989349909127
490, 0.00013202085392549634
491, 0.00013201804540585726
492, 0.00013201800175011158
493, 0.00013201743422541767
494, 0.00013201302499510348
495, 0.000132017390569672
496, 0.00013201496039982885
497, 0.00013201480032876134
498, 0.00013201756519265473
499, 0.00013201552792452276
0 2.623619556427002 0.05 7.881308078765869
1 2.4626917839050293 0.05 6.9441118240356445
2 2.2939260005950928 0.05 6.02497673034668
3 2.0936758518218994 0.05 5.018980026245117
4 1.8243074417114258 0.05 3.810594081878662
5 1.4279296398162842 0.05 2.334588050842285
6 0.9879071116447449 0.05 1.1174520254135132
7 0.6630545854568481 0.05 0.5033791065216064
8 0.5336303114891052 0.05 0.32604503631591797
9 0.4436001777648926 0.05 0.22530978918075562
10 0.37467244267463684 0.05 0.16073119640350342
11 0.32498401403427124 0.05 0.12092626094818115
12 0.2857591211795807 0.05 0.09349681437015533
13 0.25392770767211914 0.05 0.07382727414369583
14 0.22851698100566864 0.05 0.05979069322347641
15 0.20852725207805634 0.05 0.049787722527980804
16 0.19262896478176117 0.05 0.04248540848493576
17 0.17963539063930511 0.05 0.036947108805179596
18 0.16874940693378448 0.05 0.03260476887226105
19 0.1593971699476242 0.05 0.029090948402881622
20 0.15122802555561066 0.05 0.026185518130660057
21 0.14397789537906647 0.05 0.02373494952917099
22 0.13748286664485931 0.05 0.021641820669174194
23 0.13160060346126556 0.05 0.01982952654361725
24 0.12624219059944153 0.05 0.01824759505689144
25 0.12133199721574783 0.05 0.016855720430612564
26 0.11680447310209274 0.05 0.015621243044734001
27 0.11261527985334396 0.05 0.014520824886858463
28 0.10871479660272598 0.05 0.013532371260225773
29 0.10508911311626434 0.05 0.012644804082810879
30 0.1016918271780014 0.05 0.011840464547276497
31 0.09851029515266418 0.05 0.011111171916127205
32 0.0955214723944664 0.05 0.010447168722748756
33 0.09270227700471878 0.05 0.009839599952101707
34 0.09003125876188278 0.05 0.009280754253268242
35 0.08749692142009735 0.05 0.008765610866248608
36 0.0851047933101654 0.05 0.008292866870760918
37 0.08282020688056946 0.05 0.007853608578443527
38 0.08064502477645874 0.05 0.0074464925564825535
39 0.07856304198503494 0.05 0.0070669688284397125
40 0.07656652480363846 0.05 0.006712348200380802
41 0.07467394322156906 0.05 0.00638461671769619
42 0.07283566147089005 0.05 0.006074139848351479
43 0.07109416276216507 0.05 0.005787147209048271
44 0.06938804686069489 0.05 0.005512720439583063
45 0.0677676573395729 0.05 0.005258253775537014
46 0.06620563566684723 0.05 0.005018644966185093
47 0.06468060612678528 0.05 0.00479010259732604
48 0.06322633475065231 0.05 0.004577123560011387
49 0.06180446594953537 0.05 0.004373572766780853
50 0.06043190509080887 0.05 0.004181472584605217
51 0.059113532304763794 0.05 0.004001017659902573
52 0.057834576815366745 0.05 0.0038297621067613363
53 0.056592389941215515 0.05 0.0036670148838311434
54 0.05538833513855934 0.05 0.0035126367583870888
55 0.05422048270702362 0.05 0.003366071730852127
56 0.0530964620411396 0.05 0.0032279572915285826
57 0.05198868364095688 0.05 0.003094669431447983
58 0.050922345370054245 0.05 0.0029690219089388847
59 0.049898333847522736 0.05 0.0028508128598332405
60 0.04887683689594269 0.05 0.002735286485403776
61 0.04790696129202843 0.05 0.0026278095319867134
62 0.04696193337440491 0.05 0.0025251582264900208
63 0.046037137508392334 0.05 0.002426684135571122
64 0.04512986168265343 0.05 0.0023319791071116924
65 0.044270358979701996 0.05 0.0022439993917942047
66 0.043410684913396835 0.05 0.0021576941944658756
67 0.042585115879774094 0.05 0.002076406031847
68 0.04177415370941162 0.05 0.0019980757497251034
69 0.04100193455815315 0.05 0.0019248874159529805
70 0.04023296386003494 0.05 0.0018533640541136265
71 0.03948910906910896 0.05 0.0017854648176580667
72 0.03876148536801338 0.05 0.0017202734015882015
73 0.03805853798985481 0.05 0.0016584439435973763
74 0.037370260804891586 0.05 0.0015990014653652906
75 0.036698952317237854 0.05 0.0015420694835484028
76 0.03603734076023102 0.05 0.0014869696460664272
77 0.03540515527129173 0.05 0.0014352566795423627
78 0.03478024899959564 0.05 0.0013850389514118433
79 0.03417282551527023 0.05 0.0013370829401537776
80 0.03357478231191635 0.05 0.0012906931806355715
81 0.0329892560839653 0.05 0.0012460676953196526
82 0.03243536129593849 0.05 0.0012045756448060274
83 0.03187625855207443 0.05 0.0011634060647338629
84 0.03135687857866287 0.05 0.0011258026352152228
85 0.030812254175543785 0.05 0.0010870350524783134
86 0.03029950149357319 0.05 0.0010511568980291486
87 0.02979557402431965 0.05 0.0010164829436689615
88 0.029304882511496544 0.05 0.0009832784999161959
89 0.028819866478443146 0.05 0.0009510000236332417
90 0.028356267139315605 0.05 0.000920650374609977
91 0.027896123006939888 0.05 0.0008910136530175805
92 0.02744404412806034 0.05 0.0008623683825135231
93 0.027008023113012314 0.05 0.0008351841242983937
94 0.02657470665872097 0.05 0.0008085997542366385
95 0.0261578056961298 0.05 0.0007834283169358969
96 0.025739846751093864 0.05 0.0007585924468003213
97 0.025346549227833748 0.05 0.0007355873822234571
98 0.02494165673851967 0.05 0.0007122742244973779
99 0.02457023598253727 0.05 0.0006912184180691838
100 0.0241815485060215 0.05 0.0006695219781249762
101 0.023816168308258057 0.05 0.0006494420231319964
102 0.023449115455150604 0.05 0.0006295780185610056
103 0.023092078045010567 0.05 0.000610552029684186
104 0.02275106869637966 0.05 0.0005926526500843465
105 0.022412072867155075 0.05 0.0005751229473389685
106 0.022072013467550278 0.05 0.0005578026175498962
107 0.021747374907135963 0.05 0.000541514775250107
108 0.021427392959594727 0.05 0.0005256967851892114
109 0.0211125910282135 0.05 0.000510363606736064
110 0.020806053653359413 0.05 0.0004956510965712368
111 0.0204984899610281 0.05 0.00048110555508174
112 0.020205628126859665 0.05 0.00046745658619329333
113 0.019926995038986206 0.05 0.0004546531999949366
114 0.01962858811020851 0.05 0.0004411383415572345
115 0.01935008354485035 0.05 0.0004287087358534336
116 0.01908046007156372 0.05 0.00041684473399072886
117 0.01881120353937149 0.05 0.00040516298031434417
118 0.018542692065238953 0.05 0.00039367895806208253
119 0.01828605681657791 0.05 0.0003828571061603725
120 0.018030421808362007 0.05 0.0003722273977473378
121 0.017778761684894562 0.05 0.000361909216735512
122 0.017542704939842224 0.05 0.0003523625200614333
