
  0%|                                                                                                                                                                                                                                                                                            | 0/10 [00:00<?, ?it/s]
0, 0.1364392638206482
1, 0.1364392638206482
2, 0.12979251146316528
3, 0.11694806814193726
4, 0.09893610328435898
5, 0.07756030559539795
6, 0.05549613758921623
7, 0.03876935690641403
8, 0.027032827958464622
9, 0.01946817897260189
10, 0.01501352246850729
11, 0.01262124814093113
12, 0.011441602371633053
13, 0.010877078399062157
14, 0.010553295724093914
15, 0.010261278599500656
16, 0.009896437637507915
17, 0.00942760519683361
18, 0.008864409290254116
19, 0.00823464896529913
20, 0.007574053481221199
21, 0.006915255915373564
22, 0.006289706565439701
23, 0.005724523216485977
24, 0.005234052427113056
25, 0.004823083057999611
26, 0.004488836973905563
27, 0.004223373718559742
28, 0.004013624973595142
29, 0.003844307269901037
30, 0.0037005278281867504
31, 0.0035691610537469387
32, 0.00343937030993402
33, 0.003304403740912676
34, 0.0031605090480297804
35, 0.0030071537476032972
36, 0.0028458195738494396
37, 0.0026799459010362625
38, 0.002513554412871599
39, 0.002350783674046397
40, 0.002195634413510561
41, 0.0020512405317276716
42, 0.001919754664413631
43, 0.001802180428057909
44, 0.001698504202067852
45, 0.0016075933817774057
46, 0.001527923857793212
47, 0.0014575428795069456
48, 0.0013943295925855637
49, 0.0013363908510655165
50, 0.0012820824049413204
51, 0.001230550231412053
52, 0.0011811790755018592
53, 0.0011337858159095049
54, 0.00108853611163795
55, 0.001045607728883624
56, 0.0010052192956209183
57, 0.0009675251203589141
58, 0.0009326088475063443
59, 0.0009002831648103893
60, 0.0008702701888978481
61, 0.0008422249811701477
62, 0.0008158394484780729
63, 0.0007908077677711844
64, 0.0007668535108678043
65, 0.0007438461761921644
66, 0.0007216770900413394
67, 0.0007004218059591949
68, 0.0006801245617680252
69, 0.0006608946132473648
70, 0.0006428367923945189
71, 0.0006259322981350124
72, 0.0006102256011217833
73, 0.0005956286331638694
74, 0.000582072651013732
75, 0.0005694236606359482
76, 0.0005575543618761003
77, 0.0005463891429826617
78, 0.0005357789341360331
79, 0.0005256775766611099
80, 0.0005160045111551881
81, 0.0005067238816991448
82, 0.0004978292854502797
83, 0.0004893387667834759
84, 0.00048122607404366136
85, 0.0004734759568236768
86, 0.00046605855459347367
87, 0.0004590032622218132
88, 0.00045224203495308757
89, 0.00044574387720786035
90, 0.00043952581472694874
91, 0.00043355184607207775
92, 0.00042780660442076623
93, 0.000422279437771067
94, 0.00041692389640957117
95, 0.0004117485077586025
96, 0.000406729057431221
97, 0.0004018609179183841
98, 0.00039714755257591605
99, 0.0003925577620975673
100, 0.00038809163379482925
101, 0.0003837592084892094
102, 0.0003795713128056377
103, 0.0003755053039640188
104, 0.00037156580947339535
105, 0.0003677401691675186
106, 0.00036403973354026675
107, 0.00036042495048604906
108, 0.00035691153607331216
109, 0.00035346514778211713
110, 0.0003501048486214131
111, 0.00034682394471019506
112, 0.00034361379221081734
113, 0.00034047337248921394
114, 0.00033739511854946613
115, 0.0003344071446917951
116, 0.0003314594505354762
117, 0.0003286033752374351
118, 0.0003258048673160374
119, 0.00032305598142556846
120, 0.0003203795640729368
121, 0.0003177495382260531
122, 0.0003151589771732688
123, 0.0003126296796835959
124, 0.00031014776322990656
125, 0.00030769704608246684
126, 0.00030530989170074463
127, 0.00030295943724922836
128, 0.000300655112368986
129, 0.0002983930171467364
130, 0.0002961742284242064
131, 0.0002940022386610508
132, 0.00029187649488449097
133, 0.0002897815138567239
134, 0.0002877178485505283
135, 0.00028568808920681477
136, 0.00028370466316118836
137, 0.0002817381755448878
138, 0.0002798289933707565
139, 0.00027792921173386276
140, 0.00027607681113295257
141, 0.00027425200096331537
142, 0.0002724547521211207
143, 0.00027069117641076446
144, 0.0002689582761377096
145, 0.00026724039344117045
146, 0.0002655745774973184
147, 0.00026391883147880435
148, 0.0002623055479489267
149, 0.000260701694060117
150, 0.00025913340505212545
151, 0.0002575854305177927
152, 0.000256068364251405
153, 0.00025457178708165884
154, 0.00025310562341473997
155, 0.00025164702674373984
156, 0.00025021881447173655
157, 0.00024880690034478903
158, 0.0002474149805493653
159, 0.0002460452087689191
160, 0.0002446956932544708
161, 0.00024335042689926922
162, 0.00024202476197388023
163, 0.00024072336964309216
164, 0.00023941902327351272
165, 0.00023815047461539507
166, 0.00023688659712206572
167, 0.00023563792638015002
168, 0.0002344017120776698
169, 0.00023318121384363621
170, 0.0002319671184523031
171, 0.00023077448713593185
172, 0.00022958137560635805
173, 0.00022840707970317453
174, 0.00022724297014065087
175, 0.0002260906039737165
176, 0.00022494548466056585
177, 0.00022379829897545278
178, 0.0002226687502115965
179, 0.00022153969621285796
180, 0.00022042971977498382
181, 0.0002193448308389634
182, 0.00021827706950716674
183, 0.00021722323435824364
184, 0.00021617392485495657
185, 0.00021514654508791864
186, 0.00021412635396700352
187, 0.00021312866010703146
188, 0.00021213653963059187
189, 0.0002111453068209812
190, 0.00021017818653490394
191, 0.0002092167705995962
192, 0.0002082667051581666
193, 0.0002073453360935673
194, 0.0002064385189441964
195, 0.00020553641661535949
196, 0.00020465701527427882
197, 0.00020377319015096873
198, 0.00020291085820645094
199, 0.00020205657347105443
200, 0.0002012101758737117
201, 0.00020038294314872473
202, 0.00019956877804361284
203, 0.00019875215366482735
204, 0.00019795411208178848
205, 0.00019717424584086984
206, 0.0001963955583050847
207, 0.00019563050591386855
208, 0.0001948741264641285
209, 0.00019412164692766964
210, 0.00019338812853675336
211, 0.0001926551340147853
212, 0.00019194174092262983
213, 0.00019123379024676979
214, 0.0001905276149045676
215, 0.00018983709742315114
216, 0.00018914752581622452
217, 0.00018847870524041355
218, 0.00018781055405270308
219, 0.00018715292389970273
220, 0.00018649861158337444
221, 0.0001858596078818664
222, 0.00018521526362746954
223, 0.00018460833234712481
224, 0.00018398533575236797
225, 0.00018337310757488012
226, 0.0001827683881856501
227, 0.0001821799378376454
228, 0.0001816009753383696
229, 0.00018102099420502782
230, 0.00018044139142148197
231, 0.00017988767649512738
232, 0.00017932869377546012
233, 0.00017877831123769283
234, 0.00017824039969127625
235, 0.0001777069119270891
236, 0.000177171707036905
237, 0.00017664663027971983
238, 0.00017613323871046305
239, 0.00017560971900820732
240, 0.00017510956968180835
241, 0.00017460469098296016
242, 0.00017410595319233835
243, 0.0001736189005896449
244, 0.00017313446733169258
245, 0.00017265758651774377
246, 0.00017218574066646397
247, 0.0001717178092803806
248, 0.00017125932208728045
249, 0.00017079860845115036
250, 0.00017033462063409388
251, 0.00016989120922517031
252, 0.0001694567472441122
253, 0.00016901401977520436
254, 0.00016857885930221528
255, 0.00016815305571071804
256, 0.00016772809613030404
257, 0.00016730230709072202
258, 0.0001668889308348298
259, 0.00016647379379719496
260, 0.00016607032739557326
261, 0.000165660516358912
262, 0.0001652664359426126
263, 0.00016487114771734923
264, 0.00016448309179395437
265, 0.0001640965201659128
266, 0.00016371128731407225
267, 0.00016333232633769512
268, 0.0001629597245482728
269, 0.00016258243704214692
270, 0.00016222296108026057
271, 0.0001618662354303524
272, 0.00016149994917213917
273, 0.00016113875608425587
274, 0.0001607891608728096
275, 0.00016043415234889835
276, 0.0001600899122422561
277, 0.00015974849520716816
278, 0.0001594099885551259
279, 0.00015907226770650595
280, 0.00015874285600148141
281, 0.0001584166893735528
282, 0.000158089809701778
283, 0.00015776470536366105
284, 0.00015744412667118013
285, 0.0001571300526848063
286, 0.00015681074000895023
287, 0.00015650449495296925
288, 0.00015620037447661161
289, 0.0001558851363370195
290, 0.00015558696759399027
291, 0.00015528517542406917
292, 0.00015498507127631456
293, 0.00015468952187802643
294, 0.00015439995331689715
295, 0.00015410313790198416
296, 0.0001538176293252036
297, 0.00015353011258412153
298, 0.00015324779087677598
299, 0.00015297091158572584
300, 0.00015268681454472244
301, 0.00015241051733028144
302, 0.00015213691222015768
303, 0.0001518618082627654
304, 0.00015159368922468275
305, 0.00015132402768358588
306, 0.00015104841440916061
307, 0.0001507844281150028
308, 0.00015051534865051508
309, 0.00015026226174086332
310, 0.00014999357517808676
311, 0.00014973364886827767
312, 0.00014946950250305235
313, 0.00014921356341801584
314, 0.0001489589922130108
315, 0.000148698192788288
316, 0.00014843963435851038
317, 0.00014818404451943934
318, 0.00014793043374083936
319, 0.00014767321408726275
320, 0.00014740880578756332
321, 0.00014716055011376739
322, 0.00014690235548187047
323, 0.00014665319758933038
324, 0.00014639356231782585
325, 0.00014614871179219335
326, 0.0001459003397030756
327, 0.00014565259334631264
328, 0.00014541338896378875
329, 0.00014516514784190804
330, 0.000144928228110075
331, 0.00014468944573309273
332, 0.00014445476699620485
333, 0.00014421854575630277
334, 0.00014398660277947783
335, 0.00014375208411365747
336, 0.00014351870049722493
337, 0.0001432985154679045
338, 0.0001430763368261978
339, 0.00014285305223893374
340, 0.00014263784396462142
341, 0.00014242049655877054
342, 0.00014221301535144448
343, 0.00014200509758666158
344, 0.00014179921709001064
345, 0.00014161020226310939
346, 0.00014140611165203154
347, 0.0001412114652339369
348, 0.00014102176646701992
349, 0.00014083491987548769
350, 0.00014065319555811584
351, 0.00014047190779820085
352, 0.00014029846352059394
353, 0.00014012814790476114
354, 0.00013995793415233493
355, 0.00013979303184896708
356, 0.00013963076344225556
357, 0.00013947655679658055
358, 0.00013931540888734162
359, 0.0001391529367538169
360, 0.00013900885824114084
361, 0.0001388578675687313
362, 0.00013870657130610198
363, 0.00013856642181053758
364, 0.00013841778854839504
365, 0.00013827897782903165
366, 0.00013814237900078297
367, 0.00013800914166495204
368, 0.00013787703937850893
369, 0.0001377463631797582
370, 0.0001376128348056227
371, 0.00013748978381045163
372, 0.00013736060645896941
373, 0.00013723816664423794
374, 0.00013710914936382324
375, 0.00013699388364329934
376, 0.00013688065519090742
377, 0.00013676210073754191
378, 0.00013664927973877639
379, 0.00013653989299200475
380, 0.00013643113197758794
381, 0.0001363185147056356
382, 0.00013621154357679188
383, 0.000136109214508906
384, 0.00013600580859929323
385, 0.00013590672460850328
386, 0.00013580548693425953
387, 0.00013571319868788123
388, 0.00013562414096668363
389, 0.0001355220447294414
390, 0.00013542901433538646
391, 0.00013533944729715586
392, 0.00013525644317269325
393, 0.00013516585750039667
394, 0.00013508104893844575
395, 0.00013499316992238164
396, 0.00013491217396222055
397, 0.00013483020302373916
398, 0.00013474766456056386
399, 0.0001346731005469337
400, 0.00013460037007462233
401, 0.00013452765415422618
402, 0.00013444916112348437
403, 0.00013437619782052934
404, 0.00013430177932605147
405, 0.0001342357136309147
406, 0.00013416916772257537
407, 0.0001341020397376269
408, 0.00013403633784037083
409, 0.0001339747104793787
410, 0.00013391107495408505
411, 0.00013384904013946652
412, 0.00013379144365899265
413, 0.00013373115507420152
414, 0.00013367475185077637
415, 0.00013361427409108728
416, 0.00013356635463424027
417, 0.00013351309462450445
418, 0.0001334641856374219
419, 0.0001334085682174191
420, 0.0001333625114057213
421, 0.00013331230729818344
422, 0.0001332694519078359
423, 0.00013322100858204067
424, 0.00013317268167156726
425, 0.000133129971800372
426, 0.00013308810594026
427, 0.00013304997992236167
428, 0.00013300917635206133
429, 0.00013296562246978283
430, 0.00013292591029312462
431, 0.00013289249909576029
432, 0.00013285153545439243
433, 0.00013281420979183167
434, 0.00013278130791150033
435, 0.00013275325181894004
436, 0.00013272212527226657
437, 0.00013268747716210783
438, 0.00013265656889416277
439, 0.00013262253196444362
440, 0.0001325950725004077
441, 0.0001325726043432951
442, 0.00013254221994429827
443, 0.00013251873315311968
444, 0.0001324894983554259
445, 0.00013247120659798384
446, 0.00013244198635220528
447, 0.00013242116256151348
448, 0.00013239780673757195
449, 0.00013237932580523193
450, 0.00013235752703621984
451, 0.0001323345204582438
452, 0.00013231608318164945
453, 0.00013229924661573023
454, 0.00013228418538346887
455, 0.00013226605369709432
456, 0.00013224955182522535
457, 0.00013223604764789343
458, 0.00013221717381384224
459, 0.00013220780238043517
460, 0.00013219341053627431
461, 0.00013218040112406015
462, 0.00013217193190939724
463, 0.00013215880608186126
464, 0.00013214726641308516
465, 0.00013213801139499992
466, 0.0001321289746556431
467, 0.00013211488840170205
468, 0.00013210941688157618
469, 0.00013210144243203104
470, 0.00013209102326072752
471, 0.000132089015096426
472, 0.00013208016753196716
473, 0.0001320739247603342
474, 0.00013206579023972154
475, 0.000132060595205985
476, 0.00013205758295953274
477, 0.00013204982678871602
478, 0.00013205036520957947
479, 0.00013204014976508915
480, 0.00013203929120209068
481, 0.00013203587150201201
482, 0.0001320306328125298
483, 0.00013202503032516688
484, 0.00013202513218857348
485, 0.00013202444824855775
486, 0.00013202140689827502
487, 0.00013201822002884
488, 0.00013202300760895014
489, 0.00013201951514929533
490, 0.00013202022819314152
491, 0.00013201659021433443
492, 0.00013201445108279586
493, 0.0001320127776125446
494, 0.00013201382535044104
495, 0.00013201270485296845
496, 0.0001320128794759512
497, 0.00013201388355810195
498, 0.00013201296678744256
499, 0.00013201229739934206
0 2.623624324798584 0.05 7.881319046020508
1 2.462688446044922 0.05 6.944077491760254
2 2.293919801712036 0.05 6.02493143081665
3 2.0936877727508545 0.05 5.019025802612305
4 1.8243038654327393 0.05 3.81057071685791
5 1.4279077053070068 0.05 2.3345112800598145
6 0.9878979921340942 0.05 1.1174288988113403
7 0.6630503535270691 0.05 0.5033715963363647
8 0.5336300730705261 0.05 0.3260440528392792
9 0.4435993731021881 0.05 0.22530846297740936
10 0.3746766149997711 0.05 0.1607344150543213
11 0.3249951899051666 0.05 0.12093432247638702
12 0.2857685089111328 0.05 0.09350274503231049
13 0.25392574071884155 0.05 0.07382596284151077
14 0.22852864861488342 0.05 0.059796664863824844
15 0.2085324078798294 0.05 0.04979008063673973
16 0.19261905550956726 0.05 0.0424809455871582
17 0.17963223159313202 0.05 0.03694572299718857
18 0.16876192390918732 0.05 0.03260953724384308
19 0.15940529108047485 0.05 0.029093846678733826
20 0.15122561156749725 0.05 0.026184624060988426
21 0.14397591352462769 0.05 0.023734241724014282
22 0.13748611509799957 0.05 0.02164279669523239
23 0.1316017061471939 0.05 0.01982981711626053
24 0.12624430656433105 0.05 0.018248166888952255
25 0.1213291585445404 0.05 0.016854891553521156
26 0.11680486798286438 0.05 0.015621314756572247
27 0.11260788142681122 0.05 0.014518882147967815
28 0.10871285200119019 0.05 0.01353185810148716
29 0.10509268194437027 0.05 0.012645634822547436
30 0.10169665515422821 0.05 0.011841562576591969
31 0.09851305186748505 0.05 0.011111768893897533
32 0.09552256762981415 0.05 0.010447385720908642
33 0.0927010104060173 0.05 0.009839309379458427
34 0.09003078937530518 0.05 0.00928063690662384
35 0.08750920742750168 0.05 0.008768053725361824
36 0.08510340750217438 0.05 0.008292578160762787
37 0.08281867206096649 0.05 0.00785329844802618
38 0.0806397870182991 0.05 0.007445508614182472
39 0.07855906337499619 0.05 0.007066237740218639
40 0.07657607644796371 0.05 0.006714009214192629
41 0.07466831803321838 0.05 0.0063836402259767056
42 0.07284113019704819 0.05 0.006075037643313408
43 0.07109173387289047 0.05 0.005786737892776728
44 0.06939686834812164 0.05 0.005514109507203102
45 0.06775502115488052 0.05 0.00525628263130784
46 0.06619732826948166 0.05 0.005017375573515892
47 0.06467486172914505 0.05 0.004789240658283234
48 0.06322307139635086 0.05 0.004576641134917736
49 0.06180689483880997 0.05 0.00437390711158514
50 0.060431744903326035 0.05 0.0041814399883151054
51 0.059119369834661484 0.05 0.004001798573881388
52 0.057823799550533295 0.05 0.0038283260073512793
53 0.056597426533699036 0.05 0.003667659591883421
54 0.05538414418697357 0.05 0.0035120975226163864
55 0.054219190031290054 0.05 0.0033659038599580526
56 0.053106844425201416 0.05 0.0032292127143591642
57 0.05198471620678902 0.05 0.003094190265983343
58 0.05091746523976326 0.05 0.0029684463515877724
59 0.04989394173026085 0.05 0.0028503050561994314
60 0.04888381436467171 0.05 0.0027360615786165
61 0.047917332500219345 0.05 0.0026289415545761585
62 0.04695533215999603 0.05 0.002524442272260785
63 0.04605028033256531 0.05 0.0024280643556267023
64 0.04512307420372963 0.05 0.0023312722332775593
65 0.04426562786102295 0.05 0.0022435146383941174
66 0.0434177964925766 0.05 0.0021583964116871357
67 0.04258314520120621 0.05 0.0020762095227837563
68 0.04178638011217117 0.05 0.0019992412999272346
69 0.04099032282829285 0.05 0.0019237931119278073
70 0.0402408242225647 0.05 0.001854084199294448
71 0.03948190435767174 0.05 0.001784809399396181
72 0.03877255693078041 0.05 0.0017212519887834787
73 0.03805448114871979 0.05 0.0016580868978053331
74 0.037367597222328186 0.05 0.001598769798874855
75 0.03670142590999603 0.05 0.0015422741416841745
76 0.03603358566761017 0.05 0.0014866562560200691
77 0.0354100838303566 0.05 0.001435653306543827
78 0.03477789834141731 0.05 0.001384848728775978
79 0.0341714546084404 0.05 0.0013369729276746511
80 0.03357767313718796 0.05 0.0012909126235172153
81 0.03299742937088013 0.05 0.0012466824846342206
82 0.032434966415166855 0.05 0.0012045437470078468
83 0.03187337517738342 0.05 0.0011631929082795978
84 0.03134727105498314 0.05 0.0011251104297116399
85 0.030813800171017647 0.05 0.001087141688913107
86 0.0302987452596426 0.05 0.001051102066412568
87 0.029799144715070724 0.05 0.0010167243890464306
88 0.029302116483449936 0.05 0.000983090722002089
89 0.02882993221282959 0.05 0.0009516624268144369
90 0.028347454965114594 0.05 0.0009200763306580484
91 0.027893535792827606 0.05 0.0008908462477847934
92 0.027450738474726677 0.05 0.0008627872448414564
93 0.02700505219399929 0.05 0.0008349985582754016
94 0.026575731113553047 0.05 0.0008086602902039886
95 0.026158854365348816 0.05 0.0007834893185645342
96 0.025740735232830048 0.05 0.000758643145672977
97 0.025341518223285675 0.05 0.0007352939574047923
98 0.024944668635725975 0.05 0.0007124446565285325
99 0.024565674364566803 0.05 0.0006909602088853717

 10%|███████████████████████████▌                                                                                                                                                                                                                                                       | 1/10 [02:48<25:18, 168.70s/it]
0, 0.1123598963022232
1, 0.1123598963022232
2, 0.10478775203227997
3, 0.09046920388936996
4, 0.07124532759189606
5, 0.05020028352737427
6, 0.031469397246837616
7, 0.020328160375356674
8, 0.014864480122923851
9, 0.012927010655403137
10, 0.012801088392734528
11, 0.013369590044021606
12, 0.01402813196182251
13, 0.0145041448995471
14, 0.01470818929374218
15, 0.014648380689322948
16, 0.014369972050189972
17, 0.013931128196418285
18, 0.013386733829975128
19, 0.01277906447649002
20, 0.012136392295360565
21, 0.011480940505862236
22, 0.010824511758983135
23, 0.010178889147937298
24, 0.009552519768476486
25, 0.008953416720032692
26, 0.008389057591557503
27, 0.007866539061069489
28, 0.007389720529317856
29, 0.006960625760257244
30, 0.006579590495675802
31, 0.006242234259843826
32, 0.00594258401542902
33, 0.005674655549228191
34, 0.00543102016672492
35, 0.0052056401036679745
