
  0%|                                                                                                                                                                                                                                                                                            | 0/10 [00:00<?, ?it/s]
0, 0.1364392638206482
1, 0.1364392638206482
2, 0.12979254126548767
3, 0.1169479489326477
4, 0.09893610328435898
5, 0.07756029069423676
6, 0.05549614131450653
7, 0.038769349455833435
8, 0.027032863348722458
9, 0.01946832239627838
10, 0.015013537369668484
11, 0.01262127049267292
12, 0.011441558599472046
13, 0.010877132415771484
14, 0.010553335770964622
15, 0.01026119478046894
16, 0.009896520525217056
17, 0.009427621029317379
18, 0.008864615112543106
19, 0.008234969340264797
20, 0.007574122399091721
21, 0.006915162783116102
22, 0.006289646960794926
23, 0.00572460051625967
24, 0.005234019830822945
25, 0.004823062103241682
26, 0.004488777369260788
27, 0.004223302472382784
28, 0.004013457335531712
29, 0.0038443084340542555
30, 0.0037005215417593718
31, 0.0035691368393599987
32, 0.0034393691457808018
33, 0.0033044032752513885
34, 0.003160486463457346
35, 0.003007106250151992
36, 0.002845813287422061
37, 0.0026799263432621956
38, 0.0025135446339845657
39, 0.0023507438600063324
40, 0.002195631852373481
41, 0.00205118115991354
42, 0.0019197508227080107
43, 0.001802230253815651
44, 0.00169847602955997
45, 0.0016075748717412353
46, 0.0015279229264706373
47, 0.001457579666748643
48, 0.0013943356461822987
49, 0.0013363759499043226
50, 0.001282072626054287
51, 0.0012305612908676267
52, 0.0011811720905825496
53, 0.0011337676551192999
54, 0.0010885363444685936
55, 0.001045613782480359
56, 0.0010051943827420473
57, 0.0009675102191977203
58, 0.0009326093131676316
59, 0.0009002693695947528
60, 0.0008702643099240959
61, 0.0008422145619988441
62, 0.0008158315322361887
63, 0.0007907974068075418
64, 0.000766859098803252
65, 0.000743838376365602
66, 0.0007216939120553434
67, 0.0007004340877756476
68, 0.0006801295094192028
69, 0.000660912599414587
70, 0.0006428419146686792
71, 0.0006259362562559545
72, 0.0006102300249040127
73, 0.0005956386448815465
74, 0.0005820844089612365
75, 0.0005694354185834527
76, 0.0005575657705776393
77, 0.0005463932175189257
78, 0.0005357832415029407
79, 0.0005256854346953332
80, 0.0005160084110684693
81, 0.0005067249294370413
82, 0.0004978430224582553
83, 0.0004893481964245439
84, 0.0004812292172573507
85, 0.00047347176587209105
86, 0.00046607322292402387
87, 0.00045900995610281825
88, 0.000452237029094249
89, 0.0004457450413610786
90, 0.00043953832937404513
91, 0.0004335606354288757
92, 0.00042780404328368604
93, 0.0004222823481541127
94, 0.0004169245657976717
95, 0.0004117595963180065
96, 0.00040673010516911745
97, 0.00040186368278227746
98, 0.0003971538390032947
99, 0.00039256660966202617
100, 0.00038809323450550437
101, 0.0003837705007754266
102, 0.00037957640597596765
103, 0.0003755049256142229
104, 0.0003715637722052634
105, 0.0003677415079437196
106, 0.00036403743433766067
107, 0.0003604312369134277
108, 0.0003569149412214756
109, 0.00035346904769539833
110, 0.00035010825376957655
111, 0.0003468208888079971
112, 0.0003436138795223087
113, 0.00034047727240249515
114, 0.00033739442005753517
115, 0.00033440557308495045
116, 0.0003314690839033574
117, 0.0003286079445388168
118, 0.00032581528648734093
119, 0.00032306445064023137
120, 0.00032038765493780375
121, 0.0003177532344125211
122, 0.00031516150920651853
123, 0.0003126375377178192
124, 0.0003101512265857309
125, 0.0003077064175158739
126, 0.0003053185064345598
127, 0.00030296301702037454
128, 0.00030066282488405704
129, 0.00029840413480997086
130, 0.00029618191183544695
131, 0.00029400817584246397
132, 0.00029188263579271734
133, 0.00028978646150790155
134, 0.0002877261722460389
135, 0.00028569973073899746
136, 0.0002837027423083782
137, 0.0002817465865518898
138, 0.0002798321074806154
139, 0.0002779398637358099
140, 0.00027607983793132007
141, 0.000274260644800961
142, 0.00027246351237408817
143, 0.0002706974046304822
144, 0.0002689629909582436
145, 0.00026724732015281916
146, 0.00026557923411019146
147, 0.000263926456682384
148, 0.0002623123291414231
149, 0.0002607107744552195
150, 0.0002591425727587193
151, 0.00025759832351468503
152, 0.0002560758148320019
153, 0.0002545817696955055
154, 0.000253108300967142
155, 0.0002516484528314322
156, 0.0002502257702872157
157, 0.00024881481658667326
158, 0.00024741850211285055
159, 0.00024605527869425714
160, 0.00024469458730891347
161, 0.00024335992929991335
162, 0.00024203611246775836
163, 0.00024072499945759773
164, 0.00023942685220390558
165, 0.00023815641179680824
166, 0.00023689608497079462
167, 0.00023563962895423174
168, 0.0002344082749914378
169, 0.00023318332387134433
170, 0.00023197394330054522
171, 0.00023077335208654404
172, 0.00022958146291784942
173, 0.0002284130605403334
174, 0.00022724800510331988
175, 0.00022609950974583626
176, 0.00022494682343676686
177, 0.00022380104928743094
178, 0.0002226672659162432
179, 0.00022153770260047168
180, 0.00022043158242013305
181, 0.00021934199321549386
182, 0.00021828005264978856
183, 0.0002172221866203472
184, 0.00021617735910695046
185, 0.00021514890249818563
186, 0.0002141305449185893
187, 0.00021312860189937055
188, 0.00021213735453784466
189, 0.00021114456467330456
190, 0.00021017721155658364
191, 0.00020922216936014593
192, 0.0002082683495245874
193, 0.0002073509676847607
194, 0.00020643566676881164
195, 0.00020553346257656813
196, 0.00020464914268814027
197, 0.00020377284090500325
198, 0.00020291435066610575
199, 0.00020205543842166662
200, 0.00020121211127843708
201, 0.00020038572256453335
202, 0.00019957049516960979
203, 0.0001987553550861776
204, 0.00019795614934992045
205, 0.0001971745368791744
206, 0.00019639758102130145
207, 0.0001956274500116706
208, 0.00019487214740365744
209, 0.000194119566003792
210, 0.00019338828860782087
211, 0.00019265936862211674
212, 0.00019194713968317956
213, 0.0001912289299070835
214, 0.00019052971038036048
215, 0.00018984038615599275
216, 0.00018915487453341484
217, 0.00018847330647986382
218, 0.00018781078688334674
219, 0.00018714908219408244
220, 0.00018650118727236986
221, 0.00018585706129670143
222, 0.0001852179120760411
223, 0.0001846010418375954
224, 0.00018398163956589997
225, 0.00018337076471652836
226, 0.00018277580966241658
227, 0.00018217580509372056
228, 0.00018159920000471175
229, 0.00018101352907251567
230, 0.00018044309399556369
231, 0.00017988923355005682
232, 0.00017933378694579005
233, 0.0001787769579095766
234, 0.00017823271628003567
235, 0.00017770621343515813
236, 0.00017716939328238368
237, 0.00017664136248640716
238, 0.0001761306484695524
239, 0.00017560794367454946
240, 0.00017510521865915507
241, 0.0001746039342833683
242, 0.00017411052249372005
243, 0.00017361521895509213
244, 0.00017313004354946315
245, 0.00017266091890633106
246, 0.00017218326684087515
247, 0.00017171562649309635
248, 0.00017125392332673073
249, 0.00017079069220926613
250, 0.00017033754556905478
251, 0.00016989227151498199
252, 0.00016945178504101932
253, 0.00016900975606404245
254, 0.00016857268929015845
255, 0.0001681493886280805
256, 0.00016772400704212487
257, 0.00016730069182813168
258, 0.00016689044423401356
259, 0.0001664726878516376
260, 0.00016606975987087935
261, 0.00016566141857765615
262, 0.0001652660284889862
263, 0.00016486376989632845
264, 0.00016447719826828688
265, 0.00016409653471782804
266, 0.00016371076344512403
267, 0.00016332813538610935
268, 0.00016295953537337482
269, 0.00016258293180726469
270, 0.00016222234989982098
271, 0.0001618561800569296
272, 0.0001614942739252001
273, 0.00016113714082166553
274, 0.0001607870071893558
275, 0.0001604365388629958
276, 0.00016008905367925763
277, 0.0001597501104697585
278, 0.00015940581215545535
279, 0.00015906650514807552
280, 0.0001587370497873053
281, 0.00015841456479392946
282, 0.00015808208263479173
283, 0.00015775943757034838
284, 0.0001574390335008502
285, 0.00015713050379417837
286, 0.00015681124932598323
287, 0.00015650084242224693
288, 0.0001561917451908812
289, 0.00015588501992169768
290, 0.0001555861090309918
291, 0.0001552833418827504
292, 0.0001549948356114328
293, 0.00015468867786694318
294, 0.00015439015987794846
295, 0.00015410198830068111
296, 0.0001538150681881234
297, 0.00015353395428974181
298, 0.00015324962441809475
299, 0.00015296782657969743
300, 0.00015268352581188083
301, 0.00015240817447192967
302, 0.00015213580627460033
303, 0.00015185840311460197
304, 0.00015159475151449442
305, 0.00015132523549254984
306, 0.00015105621423572302
307, 0.00015078557771630585
308, 0.00015051403897814453
309, 0.00015026231994852424
310, 0.00014999261475168169
311, 0.00014973635552451015
312, 0.0001494705065852031
313, 0.00014921859838068485
314, 0.00014895526692271233
315, 0.00014869570441078395
316, 0.000148436360177584
317, 0.0001481793588027358
318, 0.00014792621368542314
319, 0.00014766963431611657
320, 0.00014741352060809731
321, 0.00014715523866470903
322, 0.00014690301031805575
323, 0.0001466413086745888
324, 0.00014639426080975682
325, 0.00014615163672715425
326, 0.00014589661441277713
327, 0.0001456557074561715
328, 0.00014541757991537452
329, 0.00014516802912112325
330, 0.00014492783520836383
331, 0.00014469434972852468
332, 0.00014445578563027084
333, 0.0001442225620849058
334, 0.0001439907355234027
335, 0.00014376133913174272
336, 0.00014352344442158937
337, 0.00014330208068713546
338, 0.00014307955279946327
339, 0.00014285813085734844
340, 0.00014264200581237674
341, 0.00014241921599023044
342, 0.00014221816672943532
343, 0.00014201387239154428
344, 0.00014180810831021518
345, 0.00014160737919155508
346, 0.00014140817802399397
347, 0.0001412147394148633
348, 0.00014102031127549708
349, 0.00014083509449847043
350, 0.00014065467985346913
351, 0.00014047633158043027
352, 0.00014030291640665382
353, 0.0001401313638780266
354, 0.00013995780318509787
355, 0.00013979579671286047
356, 0.0001396333973389119
357, 0.00013947636762168258
358, 0.00013931233843322843
359, 0.00013915874296799302
360, 0.00013900826161261648
361, 0.00013885617954656482
362, 0.0001387096563121304
363, 0.00013856610166840255
364, 0.00013841815234627575
365, 0.00013827858492732048
366, 0.00013814389239996672
367, 0.00013800931628793478
368, 0.00013787361967843026
369, 0.00013774429680779576
370, 0.00013761382433585823
371, 0.00013748722267337143
372, 0.00013736206165049225
373, 0.0001372341503156349
374, 0.0001371140097035095
375, 0.00013699413102585822
376, 0.0001368754601571709
377, 0.000136765229399316
378, 0.00013664772268384695
379, 0.0001365403732052073
380, 0.00013643543934449553
381, 0.00013632455375045538
382, 0.00013621378457173705
383, 0.00013610991300083697
384, 0.00013600470265373588
385, 0.00013590193702839315
386, 0.00013580672384705395
387, 0.00013571459567174315
388, 0.00013562224921770394
389, 0.00013552315067499876
390, 0.00013543313252739608
391, 0.00013533908349927515
392, 0.0001352516410406679
393, 0.0001351658720523119
394, 0.0001350786624243483
395, 0.0001349962258245796
396, 0.00013491185382008553
397, 0.000134834015625529
398, 0.0001347474753856659
399, 0.00013467305689118803
400, 0.00013460016634780914
401, 0.0001345228374702856
402, 0.00013445070362649858
403, 0.0001343766343779862
404, 0.0001343014882877469
405, 0.00013423594646155834
406, 0.00013416814908850938
407, 0.00013410503743216395
408, 0.00013403620687313378
409, 0.00013396961730904877
410, 0.00013390870299190283
411, 0.00013385072816163301
412, 0.0001337906433036551
413, 0.0001337306312052533
414, 0.00013367366045713425
415, 0.00013362061872612685
416, 0.00013356684939935803
417, 0.00013351156667340547
418, 0.0001334626431344077
419, 0.0001334111439064145
420, 0.00013336644042283297
421, 0.0001333148975390941
422, 0.00013326450425665826
423, 0.00013322176528163254
424, 0.00013317105185706168
425, 0.00013312856026459485
426, 0.00013308695633895695
427, 0.00013304533786140382
428, 0.00013300399587024003
429, 0.00013296525867190212
430, 0.0001329264632659033
431, 0.00013289047637954354
432, 0.00013285400927998126
433, 0.0001328174548689276
434, 0.00013278124970383942
435, 0.00013275261153467
436, 0.00013272363867145032
437, 0.0001326877245446667
438, 0.00013265441521070898
439, 0.00013262752327136695
440, 0.00013259734259918332
441, 0.00013257464161142707
442, 0.00013254871009849012
443, 0.00013251975178718567
444, 0.00013249280164018273
445, 0.00013247238530311733
446, 0.00013244365982245654
447, 0.0001324215845670551
448, 0.00013240129919722676
449, 0.0001323741744272411
450, 0.00013235349615570158
451, 0.00013233654317446053
452, 0.0001323157484875992
453, 0.00013230110926087946
454, 0.00013228371972218156
455, 0.0001322666648775339
456, 0.0001322466996498406
457, 0.00013223447604104877
458, 0.00013221806148067117
459, 0.00013220449909567833
460, 0.0001321938616456464
461, 0.00013218229287303984
462, 0.00013216596562415361
463, 0.00013215976650826633
464, 0.00013215120998211205
465, 0.00013213479542173445
466, 0.00013212746125645936
467, 0.00013211827899795026
468, 0.000132106855744496
469, 0.00013210161705501378
470, 0.00013209010649006814
471, 0.00013208473683334887
472, 0.00013208237942308187
473, 0.00013207191659603268
474, 0.00013206465519033372
475, 0.0001320587907684967
476, 0.00013205729192122817
477, 0.00013205123832449317
478, 0.00013204265269450843
479, 0.00013204076094552875
480, 0.000132039247546345
481, 0.00013203523121774197
482, 0.00013203429989516735
483, 0.00013202692207414657
484, 0.00013202839181758463
485, 0.00013202702393755317
486, 0.00013202060654293746
487, 0.000132016371935606
488, 0.00013201957335695624
489, 0.00013201746332924813
490, 0.00013201552792452276
491, 0.00013201643014326692
492, 0.0001320124720223248
493, 0.00013201455294620246
494, 0.0001320115989074111
495, 0.000132012675749138
496, 0.00013201292313169688
497, 0.00013201100227888674
498, 0.0001320150913670659
499, 0.00013201589172240347
0 2.6236157417297363 0.05 7.881294250488281
1 2.46268367767334 0.05 6.9440741539001465
2 2.293917417526245 0.05 6.024939060211182
3 2.0936732292175293 0.05 5.018973350524902
4 1.8243120908737183 0.05 3.8106179237365723
5 1.4279060363769531 0.05 2.3345131874084473
6 0.987876832485199 0.05 1.117384672164917
7 0.6630601286888123 0.05 0.5033880472183228
8 0.5336240530014038 0.05 0.32603776454925537
9 0.4436072111129761 0.05 0.22531718015670776
10 0.37467238306999207 0.05 0.16073131561279297
11 0.3249957859516144 0.05 0.12093516439199448
12 0.28576722741127014 0.05 0.0935022234916687
13 0.25393253564834595 0.05 0.07383017241954803
14 0.22851388156414032 0.05 0.05978913977742195
15 0.20852795243263245 0.05 0.04978811740875244
16 0.19262447953224182 0.05 0.04248347505927086
17 0.1796427071094513 0.05 0.03695015236735344
18 0.16875216364860535 0.05 0.03260587155818939
19 0.1593998223543167 0.05 0.02909194491803646
20 0.15123039484024048 0.05 0.026186365634202957
21 0.1439778059720993 0.05 0.02373494580388069
22 0.1374780535697937 0.05 0.02164033055305481
23 0.13160227239131927 0.05 0.01983005180954933
24 0.12624143064022064 0.05 0.018247399479150772
25 0.12133072316646576 0.05 0.016855383291840553
26 0.11680737137794495 0.05 0.015622034668922424
27 0.11261239647865295 0.05 0.014520097523927689
28 0.10871250927448273 0.05 0.013531817123293877
29 0.10508908331394196 0.05 0.012644810602068901
30 0.10169015824794769 0.05 0.011840090155601501
31 0.09851519018411636 0.05 0.011112287640571594
32 0.0955275446176529 0.05 0.010448509827256203
33 0.09269274026155472 0.05 0.009837587364017963
34 0.09002973139286041 0.05 0.009280449710786343
35 0.08750274777412415 0.05 0.008766787126660347
36 0.08510022610425949 0.05 0.008291985839605331
37 0.08282110095024109 0.05 0.007853787392377853
38 0.0806359052658081 0.05 0.0074448175728321075
39 0.07856015861034393 0.05 0.0070664589293301105
40 0.07658588141202927 0.05 0.006715749856084585
41 0.07466388493776321 0.05 0.006382904015481472
42 0.07283581793308258 0.05 0.006074173375964165
43 0.07108679413795471 0.05 0.005785954184830189
44 0.06939192861318588 0.05 0.005513343028724194
45 0.06775868684053421 0.05 0.005256867967545986
46 0.0662030503153801 0.05 0.005018259864300489
47 0.06468278914690018 0.05 0.004790430422872305
48 0.06322022527456284 0.05 0.00457624439150095
49 0.06180623546242714 0.05 0.004373827949166298
50 0.060433514416217804 0.05 0.004181699827313423
51 0.05911991745233536 0.05 0.004001886583864689
52 0.05782978609204292 0.05 0.0038291318342089653
53 0.05659957975149155 0.05 0.0036679513286799192
54 0.055381666868925095 0.05 0.0035117953084409237
55 0.0542219839990139 0.05 0.003366262186318636
56 0.05309876799583435 0.05 0.0032282413449138403
57 0.05198770761489868 0.05 0.0030945567414164543
58 0.050920408219099045 0.05 0.0029687993228435516
59 0.04988894239068031 0.05 0.002849743003025651
60 0.048881303519010544 0.05 0.0027357893995940685
61 0.04791238531470299 0.05 0.0026284074410796165
62 0.04695422202348709 0.05 0.002524331444874406
63 0.04604394733905792 0.05 0.002427404746413231
64 0.04512660950422287 0.05 0.0023316454607993364
65 0.0442635640501976 0.05 0.0022433127742260695
66 0.043413493782281876 0.05 0.002157975919544697
67 0.04259229823946953 0.05 0.002077108947560191
68 0.04177190363407135 0.05 0.0019978624768555164
69 0.0410042405128479 0.05 0.0019251060439273715
70 0.04023630917072296 0.05 0.0018536741845309734
71 0.039486680179834366 0.05 0.0017852472374215722
72 0.038757454603910446 0.05 0.0017199175199493766
73 0.03806304931640625 0.05 0.0016588391736149788
74 0.03736785054206848 0.05 0.0015987970400601625
75 0.03669850155711174 0.05 0.0015420333947986364
76 0.03603384643793106 0.05 0.0014866830315440893
77 0.03541536629199982 0.05 0.0014360863715410233
78 0.03477061167359352 0.05 0.001384272938594222
79 0.03417764604091644 0.05 0.0013374618720263243
80 0.03357572481036186 0.05 0.0012907671043649316
81 0.0329914465546608 0.05 0.001246234867721796
82 0.032439082860946655 0.05 0.0012048534117639065
83 0.03187461942434311 0.05 0.001163287553936243
84 0.03134439140558243 0.05 0.0011249076342210174
85 0.030811799690127373 0.05 0.0010870043188333511
86 0.030301284044981003 0.05 0.0010512819280847907
87 0.0297913309186697 0.05 0.001016194699332118
88 0.029308069497346878 0.05 0.000983493635430932
89 0.02882363833487034 0.05 0.0009512502001598477
90 0.028346380218863487 0.05 0.0009200094500556588
91 0.027902876958251 0.05 0.0008914460195228457
92 0.027440961450338364 0.05 0.0008621755987405777
93 0.02701699733734131 0.05 0.0008357401238754392
94 0.026574112474918365 0.05 0.0008085644221864641
95 0.02615527994930744 0.05 0.0007832779665477574
96 0.02574841119349003 0.05 0.0007590982131659985
97 0.02533741109073162 0.05 0.0007350579835474491
98 0.024946292862296104 0.05 0.0007125397678464651
99 0.024567265063524246 0.05 0.0006910520605742931
tuning, 0, 0.00017732326523400843
tuning, 1, 0.00017732326523400843
tuning, 2, 0.00017566513270139694
tuning, 3, 0.00017284373461734504
tuning, 4, 0.00016915722517296672
tuning, 5, 0.0001649985060794279
tuning, 6, 0.0001605760771781206
tuning, 7, 0.00015593257558066398
tuning, 8, 0.0001511838345322758
tuning, 9, 0.00014669079973828048
tuning, 10, 0.0001426418893970549
tuning, 11, 0.00013885428779758513
tuning, 12, 0.00013592772302217782
tuning, 13, 0.0001328012003796175
tuning, 14, 0.00013027827662881464
tuning, 15, 0.0001276990515179932
tuning, 16, 0.00012559100287035108
tuning, 17, 0.00012320044334046543
tuning, 18, 0.00012116273865103722
tuning, 19, 0.00011920005636056885
tuning, 20, 0.00011742961214622483
tuning, 21, 0.00011564207670744509
tuning, 22, 0.0001138237421400845
tuning, 23, 0.00011199330037925392
tuning, 24, 0.00011019800876965746
tuning, 25, 0.00010854292486328632
tuning, 26, 0.00010684200969990343
tuning, 27, 0.00010539008508203551
tuning, 28, 0.00010387202200945467
tuning, 29, 0.00010237109381705523
tuning, 30, 0.000100966717582196
tuning, 31, 9.969359962269664e-05
tuning, 32, 9.832038631429896e-05
tuning, 33, 9.688478166935965e-05
