
  0%|                                                                                                                                                                                                                                                                                            | 0/10 [00:00<?, ?it/s]
0, 0.1364392638206482
1, 0.1364392638206482
2, 0.12979207932949066
3, 0.11694815754890442
4, 0.09893608093261719
5, 0.07756023854017258
6, 0.05549613758921623
7, 0.03877304494380951
8, 0.0270454790443182
9, 0.019489701837301254
10, 0.015038134530186653
11, 0.012640571221709251
12, 0.011447637341916561
13, 0.010865164920687675
14, 0.01052362471818924
15, 0.010215479880571365
16, 0.00984133966267109
17, 0.009367100894451141
18, 0.008805038407444954
19, 0.008180975914001465
20, 0.007529701571911573
21, 0.006880208849906921
22, 0.006261838600039482
23, 0.005697051994502544
24, 0.005200926214456558
25, 0.004777895286679268
26, 0.004425292834639549
27, 0.004136749543249607
28, 0.0039021000266075134
29, 0.0037089711986482143
30, 0.0035453408490866423
31, 0.0034007634967565536
32, 0.003265887498855591
33, 0.0031345959287136793
34, 0.003003000747412443
35, 0.00286885816603899
36, 0.0027320552617311478
37, 0.002593447919934988
38, 0.002454782137647271
39, 0.0023181354627013206
40, 0.002185884630307555
41, 0.0020598459523171186
42, 0.0019416806753724813
43, 0.0018322709947824478
44, 0.001732083735987544
45, 0.0016413580160588026
46, 0.0015594884753227234
47, 0.0014860507799312472
48, 0.0014202509773895144
49, 0.0013612204929813743
50, 0.0013079473283141851
51, 0.0012596750166267157
52, 0.0012156155426055193
53, 0.001175260404124856
54, 0.0011379187926650047
55, 0.0011033756891265512
56, 0.0010712926741689444
57, 0.0010414117714390159
58, 0.0010135944467037916
59, 0.0009876731783151627
60, 0.0009635955793783069
61, 0.0009412667131982744
62, 0.0009204907109960914
63, 0.0009013182716444135
64, 0.0008835949702188373
65, 0.0008672556723468006
66, 0.0008522317511960864
67, 0.0008383194799534976
68, 0.0008255987777374685
69, 0.0008138535777106881
70, 0.0008030819590203464
71, 0.0007932631997391582
72, 0.000784138566814363
73, 0.0007758429273962975
74, 0.0007682460709474981
75, 0.0007612881599925458
76, 0.000754910463001579
77, 0.0007491160649806261
78, 0.0007438529282808304
79, 0.0007390682585537434
80, 0.0007347415084950626
81, 0.0007308110361918807
82, 0.0007273341761901975
83, 0.0007242270512506366
84, 0.0007214434444904327
85, 0.0007189542520791292
86, 0.0007168452139012516
87, 0.0007149624871090055
88, 0.0007133331382647157
89, 0.0007119858055375516
90, 0.0007108345162123442
91, 0.0007098814239725471
92, 0.0007091026636771858
93, 0.0007084822282195091
94, 0.0007080007344484329
95, 0.0007076606852933764
96, 0.0007074120221659541
97, 0.0007072642911225557
98, 0.0007071846048347652
99, 0.0007071534055285156
0 2.4191062450408936 0.05 7.64052152633667
1 2.259061574935913 0.05 6.662990570068359
2 2.0915772914886475 0.05 5.711639881134033
3 1.8938055038452148 0.05 4.682564735412598
4 1.6141173839569092 0.05 3.4016001224517822
5 1.2362478971481323 0.05 1.9953736066818237
6 0.8045639395713806 0.05 0.8451507687568665
7 0.5749173760414124 0.05 0.43154284358024597
8 0.47207751870155334 0.05 0.290964275598526
9 0.3923065960407257 0.05 0.20093901455402374
10 0.3378297686576843 0.05 0.14900775253772736
11 0.2966739535331726 0.05 0.11491371691226959
12 0.2651781737804413 0.05 0.0918097048997879
13 0.24007484316825867 0.05 0.07524996995925903
14 0.21955689787864685 0.05 0.0629371702671051
15 0.2026439905166626 0.05 0.05361428111791611
16 0.18850970268249512 0.05 0.04639598727226257
17 0.17652930319309235 0.05 0.04068615287542343
18 0.16619518399238586 0.05 0.03606200963258743
19 0.15711867809295654 0.05 0.03223062679171562
20 0.14906491339206696 0.05 0.029011081904172897
21 0.14182829856872559 0.05 0.026262670755386353
22 0.13528351485729218 0.05 0.023894768208265305
23 0.12931080162525177 0.05 0.0218314491212368
24 0.12385397404432297 0.05 0.02002778649330139
25 0.11884220689535141 0.05 0.018439725041389465
26 0.11421483010053635 0.05 0.017031703144311905
27 0.1099407970905304 0.05 0.015780866146087646
28 0.10597310215234756 0.05 0.014662375673651695
29 0.1022879108786583 0.05 0.01366034522652626
30 0.09883953630924225 0.05 0.012754824012517929
31 0.09561598300933838 0.05 0.01193641684949398
32 0.09258802980184555 0.05 0.011192386969923973
33 0.08973807096481323 0.05 0.010513964109122753
34 0.08704777806997299 0.05 0.00989301037043333
35 0.08449641615152359 0.05 0.009321581572294235
36 0.08207688480615616 0.05 0.008795383386313915
37 0.07977425307035446 0.05 0.008308804593980312
38 0.077582448720932 0.05 0.007858505472540855
39 0.07548698782920837 0.05 0.007439730688929558
40 0.07348734885454178 0.05 0.007050796877592802
41 0.0715671107172966 0.05 0.006687134504318237
42 0.06972654163837433 0.05 0.00634759571403265
43 0.06796146184206009 0.05 0.0060302941128611565
44 0.06626645475625992 0.05 0.005733245052397251
45 0.06462807953357697 0.05 0.005453251302242279
46 0.063056580722332 0.05 0.005191273055970669
47 0.06153689697384834 0.05 0.00494406558573246
48 0.06007038801908493 0.05 0.004711226560175419
49 0.05865970253944397 0.05 0.004492548294365406
50 0.05729648470878601 0.05 0.004286166280508041
51 0.05596967786550522 0.05 0.004089956637471914
52 0.05469508096575737 0.05 0.003905795980244875
53 0.053457118570804596 0.05 0.003730990458279848
54 0.052262354642152786 0.05 0.003566079307347536
55 0.05110371857881546 0.05 0.0034097149036824703
56 0.0499764047563076 0.05 0.0032609424088150263
57 0.048886287957429886 0.05 0.0031202342361211777
58 0.047830283641815186 0.05 0.0029868879355490208
59 0.04680074751377106 0.05 0.0028596881311386824
60 0.04580574855208397 0.05 0.002739384537562728
61 0.044843658804893494 0.05 0.0026255184784531593
62 0.043903887271881104 0.05 0.002516628010198474
63 0.04299358278512955 0.05 0.0024133496917784214
64 0.0421050488948822 0.05 0.002314629266038537
65 0.04124528914690018 0.05 0.002221067436039448
66 0.040407005697488785 0.05 0.002131701447069645
67 0.0395924374461174 0.05 0.002046621637418866
68 0.03880348056554794 0.05 0.00196586805395782
69 0.03803329914808273 0.05 0.0018886046018451452
70 0.037288080900907516 0.05 0.0018153195269405842
71 0.03655681759119034 0.05 0.0017448165453970432
72 0.03584468737244606 0.05 0.0016775005497038364
73 0.03516027703881264 0.05 0.0016140524530783296
74 0.034481633454561234 0.05 0.0015523466281592846
75 0.03383380174636841 0.05 0.0014945645816624165
76 0.03319287300109863 0.05 0.0014384763780981302
77 0.03256978839635849 0.05 0.001384977949783206
78 0.03196787089109421 0.05 0.00133426021784544
79 0.03137735649943352 0.05 0.0012854220112785697
80 0.0308033749461174 0.05 0.001238824101164937
81 0.030239980667829514 0.05 0.001193922245875001
82 0.029692066833376884 0.05 0.0011510492768138647
83 0.029168404638767242 0.05 0.0011108065955340862
84 0.02863735891878605 0.05 0.0010707275941967964
85 0.02813531458377838 0.05 0.001033514505252242
86 0.027639329433441162 0.05 0.0009973968844860792
87 0.02715584635734558 0.05 0.0009628080879338086
88 0.02668214961886406 0.05 0.0009295112686231732
89 0.026224901899695396 0.05 0.0008979265112429857
90 0.025774212554097176 0.05 0.0008673290139995515
91 0.02533155493438244 0.05 0.0008377929916605353
92 0.02490721456706524 0.05 0.000809959601610899
93 0.024487031623721123 0.05 0.0007828621892258525
94 0.024077795445919037 0.05 0.0007569139124825597
95 0.023676063865423203 0.05 0.0007318667485378683
96 0.023281658068299294 0.05 0.0007076864712871611
97 0.022903213277459145 0.05 0.0006848664488643408
98 0.022528957575559616 0.05 0.0006626668618991971
99 0.022163501009345055 0.05 0.0006413421942852437

 10%|███████████████████████████▌                                                                                                                                                                                                                                                        | 1/10 [00:40<06:07, 40.84s/it]
0, 0.1123598963022232
1, 0.1123598963022232
2, 0.10478776693344116
3, 0.0904696136713028
4, 0.07124530524015427
5, 0.05020026117563248
6, 0.031469348818063736
7, 0.020330198109149933
8, 0.014868473634123802
9, 0.012927507981657982
10, 0.012790152803063393
11, 0.0133425984531641
12, 0.013981923460960388
13, 0.014439272694289684
14, 0.014627444557845592
15, 0.014555878937244415
16, 0.014270251616835594
17, 0.013828079216182232
18, 0.013284213840961456
19, 0.012678772211074829
20, 0.01204163208603859
21, 0.011393655091524124
22, 0.0107490299269557
23, 0.01011605840176344
24, 0.009504211135208607
25, 0.008919429033994675
26, 0.008368417620658875
27, 0.007856599986553192
28, 0.007387872785329819
29, 0.00696268817409873
30, 0.006581730209290981
31, 0.006242117844521999
32, 0.005939043127000332
33, 0.005667705088853836
34, 0.00542321614921093
35, 0.00520036555826664
36, 0.004994878079742193
37, 0.004803349729627371
38, 0.004623588174581528
39, 0.0044543626718223095
40, 0.0042947991751134396
41, 0.004144217818975449
42, 0.0040021720342338085
43, 0.003868641797453165
44, 0.003743509529158473
45, 0.0036268974654376507
46, 0.0035188072361052036
47, 0.0034187762066721916
48, 0.0033264148514717817
49, 0.0032414391171187162
50, 0.0031635137274861336
51, 0.00309209106490016
52, 0.0030266274698078632
53, 0.0029664593748748302
54, 0.002911214716732502
55, 0.002860310487449169
56, 0.002813238650560379
57, 0.0027695386670529842
58, 0.002728937193751335
59, 0.0026911417953670025
60, 0.002655911026522517
61, 0.002623092383146286
62, 0.0025924467481672764
63, 0.0025638872757554054
64, 0.002537200693041086
65, 0.0025123520754277706
66, 0.002489183098077774
67, 0.0024675261229276657
68, 0.002447413746267557
69, 0.002428678097203374
70, 0.002411261200904846
71, 0.0023951383773237467
72, 0.002380195539444685
73, 0.002366378903388977
74, 0.0023536072112619877
75, 0.0023418450728058815
76, 0.002331067342311144
77, 0.0023211524821817875
78, 0.002312135649845004
79, 0.002303880173712969
80, 0.0022963564842939377
81, 0.002289536176249385
82, 0.0022834460251033306
83, 0.002277958206832409
84, 0.0022730566561222076
85, 0.002268747426569462
86, 0.0022649108432233334
87, 0.002261602785438299
88, 0.002258733380585909
89, 0.0022562751546502113
90, 0.0022542031947523355
91, 0.0022525060921907425
92, 0.0022511067800223827
93, 0.0022500487975776196
94, 0.0022491924464702606
95, 0.0022485614754259586
96, 0.0022481302730739117
97, 0.002247858326882124
98, 0.0022476883605122566
99, 0.0022476157173514366
0 2.717362880706787 0.05 8.139727592468262
1 2.5557861328125 0.05 7.200514793395996
2 2.384556293487549 0.05 6.268010139465332
3 2.190715789794922 0.05 5.290376663208008
4 1.943751335144043 0.05 4.164817810058594
5 1.579075574874878 0.05 2.7486557960510254
6 1.1765776872634888 0.05 1.5260043144226074
7 0.8704522252082825 0.05 0.835226833820343
8 0.7087963819503784 0.05 0.5538058280944824
9 0.5970306992530823 0.05 0.3929233253002167
10 0.5068392157554626 0.05 0.2831750512123108
11 0.43464553356170654 0.05 0.2082499861717224
12 0.38180702924728394 0.05 0.16069501638412476
13 0.34113916754722595 0.05 0.12828552722930908
14 0.3084414601325989 0.05 0.10487212985754013
15 0.2815144956111908 0.05 0.0873606950044632
16 0.2589511573314667 0.05 0.07391799241304398
17 0.23979535698890686 0.05 0.06338639557361603
18 0.2233096808195114 0.05 0.054970499128103256
19 0.20899535715579987 0.05 0.04814906418323517
20 0.19649437069892883 0.05 0.04256129264831543
21 0.18550200760364532 0.05 0.03793253004550934
22 0.1757921725511551 0.05 0.03406541049480438
23 0.16714411973953247 0.05 0.030796170234680176
24 0.1593979150056839 0.05 0.028007857501506805
25 0.15240462124347687 0.05 0.02560417726635933
26 0.14605246484279633 0.05 0.023514317348599434
27 0.14024105668067932 0.05 0.021680280566215515
28 0.13489995896816254 0.05 0.020060336217284203
29 0.1299540251493454 0.05 0.0186163280159235
30 0.12537096440792084 0.05 0.01732640713453293
31 0.12108808755874634 0.05 0.016162827610969543
32 0.11707759648561478 0.05 0.01510991994291544
33 0.11331735551357269 0.05 0.014154921285808086
34 0.10978149622678757 0.05 0.01328534446656704
35 0.10644757747650146 0.05 0.012490682303905487
36 0.10329273343086243 0.05 0.011761266738176346
37 0.10030243545770645 0.05 0.011090151034295559
38 0.09747428447008133 0.05 0.010473567992448807
39 0.09478041529655457 0.05 0.009902657940983772
40 0.09223233908414841 0.05 0.009377368725836277
41 0.08980124443769455 0.05 0.008889539167284966
42 0.08748741447925568 0.05 0.008437343873083591
43 0.08528047800064087 0.05 0.008017034269869328
44 0.08316488564014435 0.05 0.007624204270541668
45 0.08114660531282425 0.05 0.007258639670908451
46 0.07922866195440292 0.05 0.006919570732861757
47 0.07737699896097183 0.05 0.006599914748221636
48 0.07560063153505325 0.05 0.006300360895693302
49 0.07390475273132324 0.05 0.0060208700597286224
50 0.07226964831352234 0.05 0.005757400766015053
51 0.07069871574640274 0.05 0.00550982216373086
52 0.0691867545247078 0.05 0.00527667673304677
53 0.06772680580615997 0.05 0.005056333728134632
54 0.06632870435714722 0.05 0.004849730059504509
55 0.06497317552566528 0.05 0.004653532058000565
56 0.06366611272096634 0.05 0.00446818582713604
57 0.06240256130695343 0.05 0.004292590077966452
58 0.061180803924798965 0.05 0.004126149229705334
59 0.060004573315382004 0.05 0.003969020210206509
60 0.05885934457182884 0.05 0.003818962723016739
61 0.05776243284344673 0.05 0.003677947446703911
62 0.056688230484724045 0.05 0.0035424227826297283
63 0.055644258856773376 0.05 0.003413149155676365
64 0.05464152991771698 0.05 0.003291245549917221
65 0.05366278439760208 0.05 0.003174395300447941
66 0.05270962789654732 0.05 0.0030626291409134865
67 0.05178818106651306 0.05 0.0029564863070845604
68 0.05089757964015007 0.05 0.002855675294995308
69 0.05002378672361374 0.05 0.002758466172963381
70 0.04917779564857483 0.05 0.0026659539435058832
71 0.04834631830453873 0.05 0.002576566766947508
72 0.047554418444633484 0.05 0.00249285064637661
73 0.04676668718457222 0.05 0.0024109475780278444
74 0.04600873216986656 0.05 0.0023334319703280926
75 0.04526470601558685 0.05 0.002258571796119213
76 0.044540885835886 0.05 0.002186916768550873
77 0.043836068361997604 0.05 0.00211825268343091
78 0.043149154633283615 0.05 0.0020523862913250923
79 0.04247579723596573 0.05 0.0019888298120349646
80 0.04181898012757301 0.05 0.0019277977989986539
81 0.041181206703186035 0.05 0.0018694447353482246
82 0.040553413331508636 0.05 0.0018128813244402409
83 0.03995167091488838 0.05 0.0017594804521650076
84 0.03934802860021591 0.05 0.0017067132284864783
85 0.03876659646630287 0.05 0.001656646840274334
86 0.038199447095394135 0.05 0.0016085284296423197
87 0.037640079855918884 0.05 0.0015617646276950836
88 0.03709458187222481 0.05 0.0015168250538408756
89 0.03656303137540817 0.05 0.0014736657030880451
90 0.03603623807430267 0.05 0.0014315068256109953
91 0.035521093755960464 0.05 0.0013908720575273037
92 0.035026028752326965 0.05 0.0013523725792765617
93 0.03453565761446953 0.05 0.0013147707795724273
94 0.034057680517435074 0.05 0.0012786295264959335
95 0.03358834981918335 0.05 0.0012436319375410676
96 0.03312219679355621 0.05 0.0012093521654605865
97 0.03266649693250656 0.05 0.0011763040674850345
98 0.03222689777612686 0.05 0.0011448577279224992
99 0.031794555485248566 0.05 0.0011143460869789124

 20%|███████████████████████████████████████████████████████▏                                                                                                                                                                                                                            | 2/10 [01:21<05:24, 40.60s/it]
0, 0.09775816649198532
1, 0.09775816649198532
2, 0.09261509031057358
3, 0.08272567391395569
4, 0.06901426613330841
5, 0.053106747567653656
6, 0.03751783072948456
7, 0.02679779753088951
8, 0.02015002630650997
9, 0.01625087857246399
10, 0.01391924824565649
11, 0.012371263466775417
12, 0.01117348950356245
13, 0.010127117857336998
14, 0.009165516123175621
15, 0.008280595764517784
16, 0.007480112370103598
17, 0.006769525818526745
18, 0.006148842629045248
19, 0.005614212714135647
20, 0.005163170862942934
21, 0.004792666062712669
22, 0.004497649148106575
23, 0.00426850002259016
24, 0.004090866073966026
25, 0.0039473045617341995
26, 0.0038196146488189697
27, 0.003692248370498419
28, 0.0035553749185055494
29, 0.0034046159125864506
30, 0.0032402724027633667
31, 0.003066383069381118
32, 0.002889045048505068
33, 0.002715274691581726
34, 0.0025500457268208265
35, 0.0023970124311745167
36, 0.002258243039250374
37, 0.002134199719876051
38, 0.0020242943428456783
39, 0.0019269760232418776
40, 0.0018405163427814841
41, 0.0017633301904425025
42, 0.0016935395542532206
43, 0.0016297008842229843
44, 0.0015705579426139593
45, 0.001515088602900505
46, 0.0014625824987888336
47, 0.0014126112218946218
48, 0.001365047413855791
49, 0.0013198483502492309
50, 0.0012770824832841754
51, 0.0012366691371425986
52, 0.0011987545294687152
53, 0.0011634072288870811
54, 0.0011305860243737698
55, 0.0011001608800143003
56, 0.001071891630999744
57, 0.0010456060990691185
58, 0.0010210955515503883
59, 0.0009981821058318019
60, 0.0009767203591763973
61, 0.0009566631051711738
62, 0.0009377907263115048
63, 0.0009201950742863119
64, 0.0009036902338266373
65, 0.0008883267873898149
66, 0.0008739649783819914
67, 0.0008606562623754144
68, 0.0008481867844238877
69, 0.0008366447873413563
70, 0.0008259505266323686
71, 0.0008160702418535948
72, 0.0008069149916991591
73, 0.0007984687108546495
74, 0.0007906986284069717
75, 0.0007835780270397663
76, 0.0007770505035296082
77, 0.0007710870122537017
78, 0.0007656241068616509
79, 0.0007606620783917606
80, 0.0007561920210719109
81, 0.0007521535735577345
82, 0.0007484990055672824
83, 0.0007452312856912613
84, 0.0007423501228913665
85, 0.0007398079033009708
86, 0.0007375602144747972
87, 0.0007356064161285758
88, 0.000733922584913671
89, 0.0007324982434511185
90, 0.0007312779198400676
91, 0.0007302863523364067
92, 0.0007294961251318455
93, 0.0007288443739525974
94, 0.0007283503655344248
95, 0.0007279901765286922
96, 0.0007277386612258852
97, 0.0007275803363882005
98, 0.0007274904637597501
99, 0.0007274466333910823
0 2.5382742881774902 0.05 8.790205001831055
1 2.384145975112915 0.05 7.755103588104248
2 2.1843199729919434 0.05 6.50960111618042
3 1.8552961349487305 0.05 4.6962199211120605
4 1.4324305057525635 0.05 2.799426317214966
5 1.0299056768417358 0.05 1.4471609592437744
6 0.7638208866119385 0.05 0.795985221862793
7 0.5792357325553894 0.05 0.45775455236434937
8 0.4755079448223114 0.05 0.3084874749183655
9 0.4076099693775177 0.05 0.22667911648750305
10 0.35851672291755676 0.05 0.17536412179470062
11 0.32105934619903564 0.05 0.1406347155570984
12 0.29146936535835266 0.05 0.1159064918756485
13 0.2673870921134949 0.05 0.09754451364278793
14 0.24744151532649994 0.05 0.08353473246097565
15 0.23067621886730194 0.05 0.07259848713874817
16 0.21634045243263245 0.05 0.0638553574681282
17 0.20388279855251312 0.05 0.05671306699514389
18 0.19290976226329803 0.05 0.050772715359926224
19 0.18311399221420288 0.05 0.04574725031852722
20 0.17430636286735535 0.05 0.04145227000117302
21 0.16631682217121124 0.05 0.037739336490631104
22 0.15902376174926758 0.05 0.03450213372707367
23 0.15234175324440002 0.05 0.03166356682777405
24 0.14620786905288696 0.05 0.029165096580982208
25 0.14053426682949066 0.05 0.026945509016513824
26 0.13529729843139648 0.05 0.02497469261288643
27 0.1304311901330948 0.05 0.023210521787405014
28 0.1258990615606308 0.05 0.021625535562634468
29 0.12167655676603317 0.05 0.02019927278161049
30 0.11771820485591888 0.05 0.01890641450881958
31 0.1140003427863121 0.05 0.017731038853526115
32 0.11049415916204453 0.05 0.016657143831253052
33 0.10718712955713272 0.05 0.01567498967051506
34 0.10406864434480667 0.05 0.014776164665818214
35 0.10110548883676529 0.05 0.013946697115898132
36 0.09829307347536087 0.05 0.013181589543819427
