
  0%|                                                                                                                                                                                                                                                                                            | 0/10 [00:00<?, ?it/s]
0, 0.1364392638206482
1, 0.1364392638206482
2, 0.12979252636432648
3, 0.11694788932800293
4, 0.09893618524074554
5, 0.07756023854017258
6, 0.05549606680870056
7, 0.03877010568976402
8, 0.02703537605702877
9, 0.019472792744636536
10, 0.015018600039184093
11, 0.012625297531485558
12, 0.011442810297012329
13, 0.010874465107917786
14, 0.010546764358878136
15, 0.010251499712467194
16, 0.009884378872811794
17, 0.009414533153176308
18, 0.008851682767271996
19, 0.008223901502788067
20, 0.007564753293991089
21, 0.006907513365149498
22, 0.006282884627580643
23, 0.005717575550079346
24, 0.005225516390055418
25, 0.0048120091669261456
26, 0.0044736736454069614
27, 0.004202623385936022
28, 0.003987271338701248
29, 0.003812923561781645
30, 0.0036650015972554684
31, 0.0035308413207530975
32, 0.0034004950430244207
33, 0.0032666302286088467
34, 0.0031258552335202694
35, 0.0029771390836685896
36, 0.0028215765487402678
37, 0.0026618714910000563
38, 0.002501377835869789
39, 0.0023437822237610817
40, 0.0021928800269961357
41, 0.0020514633506536484
42, 0.0019215652719140053
43, 0.001804316183552146
44, 0.0016999132931232452
45, 0.0016076720785349607
46, 0.0015265927650034428
47, 0.0014547820901498199
48, 0.0013906689127907157
49, 0.0013324329629540443
50, 0.0012786948354914784
51, 0.001228357432410121
52, 0.001180628896690905
53, 0.0011352433357387781
54, 0.0010918164625763893
55, 0.001050598919391632
56, 0.0010116390185430646
57, 0.0009750382741913199
58, 0.0009409678168594837
59, 0.0009092930122278631
60, 0.0008799486677162349
61, 0.0008526832680217922
62, 0.000827212817966938
63, 0.0008034258498810232
64, 0.0007809875532984734
65, 0.000759749673306942
66, 0.0007394905551336706
67, 0.00072011339943856
68, 0.0007016086019575596
69, 0.0006839522975496948
70, 0.0006670847069472075
71, 0.0006511557730846107
72, 0.0006360824918374419
73, 0.0006219283677637577
74, 0.00060862279497087
75, 0.0005961696151643991
76, 0.0005845269188284874
77, 0.00057360646314919
78, 0.0005633644759654999
79, 0.0005537181859835982
80, 0.0005446212599053979
81, 0.0005359767819754779
82, 0.0005277460440993309
83, 0.0005199180450290442
84, 0.0005124298622831702
85, 0.0005052844644524157
86, 0.0004984271945431828
87, 0.0004918904160149395
88, 0.00048564933240413666
89, 0.00047967929276637733
90, 0.00047398166498169303
91, 0.0004685148596763611
92, 0.00046327715972438455
93, 0.0004582794790621847
94, 0.00045347714331001043
95, 0.0004488856066018343
96, 0.0004444600490387529
97, 0.00044022471411153674
98, 0.00043614357127808034
99, 0.00043221571831963956
100, 0.0004284367896616459
101, 0.0004247920005582273
102, 0.0004212816129438579
103, 0.0004178940725978464
104, 0.000414619775256142
105, 0.0004114643670618534
106, 0.0004084091051481664
107, 0.0004054562596138567
108, 0.00040261121466755867
109, 0.00039983715396374464
110, 0.00039715226739645004
111, 0.0003945765201933682
112, 0.0003920768795069307
113, 0.0003896535490639508
114, 0.0003873024834319949
115, 0.0003850472567137331
116, 0.0003828468907158822
117, 0.00038072001188993454
118, 0.00037867584615014493
119, 0.0003766759764403105
120, 0.000374744413420558
121, 0.0003728746378328651
122, 0.0003710577148012817
123, 0.0003693037433549762
124, 0.0003676090855151415
125, 0.0003659576177597046
126, 0.0003643554518930614
127, 0.0003628182166721672
128, 0.0003613287990447134
129, 0.00035986266448162496
130, 0.00035846684477292
131, 0.0003571026027202606
132, 0.00035578844835981727
133, 0.00035450694849714637
134, 0.00035328028025105596
135, 0.00035208207555115223
136, 0.0003509192611090839
137, 0.0003498080186545849
138, 0.00034872928517870605
139, 0.00034768407931551337
140, 0.00034667481668293476
141, 0.0003456956474110484
142, 0.00034475483698770404
143, 0.00034383987076580524
144, 0.00034296439844183624
145, 0.0003421097935643047
146, 0.00034130242420360446
147, 0.00034051164402626455
148, 0.00033974897814914584
149, 0.00033902408904396
150, 0.00033832862391136587
151, 0.00033764890395104885
152, 0.00033700576750561595
153, 0.00033638259628787637
154, 0.0003357853274792433
155, 0.00033521343721076846
156, 0.00033467489993199706
157, 0.00033413857454434037
158, 0.0003336458175908774
159, 0.00033317095949314535
160, 0.0003327155427541584
161, 0.00033228457323275506
162, 0.00033186766086146235
163, 0.00033147353678941727
164, 0.0003310962929390371
165, 0.00033074020757339895
166, 0.0003304043202660978
167, 0.00033009424805641174
168, 0.0003297953517176211
169, 0.00032950853346847
170, 0.0003292459878139198
171, 0.00032899691723287106
172, 0.00032876653131097555
173, 0.0003285546263214201
174, 0.0003283439145889133
175, 0.0003281643148511648
176, 0.00032798212487250566
177, 0.00032782601192593575
178, 0.00032767554512247443
179, 0.00032753869891166687
180, 0.0003274122718721628
181, 0.00032730060047470033
182, 0.0003271952737122774
183, 0.0003271110763307661
184, 0.00032702399767003953
185, 0.00032695147092454135
186, 0.00032688918872736394
187, 0.00032683246536180377
188, 0.0003267768188379705
189, 0.0003267399442847818
190, 0.000326701148878783
191, 0.0003266762651037425
192, 0.00032664561877027154
193, 0.00032662798184901476
194, 0.0003266094718128443
195, 0.0003266026615165174
196, 0.0003265951236244291
197, 0.0003265896812081337
198, 0.0003265881387051195
199, 0.000326587469317019
0 2.4587485790252686 0.05 7.744037628173828
1 2.3039703369140625 0.05 6.799748420715332
2 2.1422367095947266 0.05 5.878602981567383
3 1.9422541856765747 0.05 4.832270622253418
4 1.6601173877716064 0.05 3.530341386795044
5 1.2593125104904175 0.05 2.0314502716064453
6 0.8230558037757874 0.05 0.8677561283111572
7 0.5880447626113892 0.05 0.44295525550842285
8 0.4834951162338257 0.05 0.2994493842124939
9 0.40014931559562683 0.05 0.20510834455490112
10 0.34273746609687805 0.05 0.15047428011894226
11 0.3000989556312561 0.05 0.11536341905593872
12 0.26755666732788086 0.05 0.09170030057430267
13 0.2419174760580063 0.05 0.07496760785579681
14 0.22106269001960754 0.05 0.06259939074516296
15 0.20382654666900635 0.05 0.05321825295686722
16 0.18942514061927795 0.05 0.04596363753080368
17 0.1772041767835617 0.05 0.040224168449640274
18 0.16665394604206085 0.05 0.03557708114385605
19 0.15744440257549286 0.05 0.03175364434719086
20 0.14929158985614777 0.05 0.028550244867801666
21 0.14199207723140717 0.05 0.02582661062479019
22 0.13539394736289978 0.05 0.02348214201629162
23 0.12939384579658508 0.05 0.021446991711854935
24 0.12391006201505661 0.05 0.019667640328407288
25 0.11887573450803757 0.05 0.01810196042060852
26 0.11423129588365555 0.05 0.016715114936232567
27 0.10993792861700058 0.05 0.015482256188988686
28 0.10595200955867767 0.05 0.014379956759512424
29 0.10224239528179169 0.05 0.013390635140240192
30 0.0987788662314415 0.05 0.012498768046498299
31 0.09553218632936478 0.05 0.011690649203956127
32 0.09247636049985886 0.05 0.010954703204333782
33 0.08959730714559555 0.05 0.010283218696713448
34 0.08688584715127945 0.05 0.009670238941907883
35 0.08431459218263626 0.05 0.009106355719268322
36 0.08186578750610352 0.05 0.008585073053836823
37 0.07954847067594528 0.05 0.00810592994093895
38 0.07733900845050812 0.05 0.007661897223442793
39 0.07523161917924881 0.05 0.007250033784657717
40 0.07321594655513763 0.05 0.00686673866584897
41 0.07129938900470734 0.05 0.006511945277452469
42 0.06945233047008514 0.05 0.006178922951221466
43 0.06768200546503067 0.05 0.005867939908057451
44 0.06598574668169022 0.05 0.0055774967186152935
45 0.06435545533895493 0.05 0.005305299535393715
46 0.06279075890779495 0.05 0.005050455220043659
47 0.061281099915504456 0.05 0.004810522310435772
48 0.05982553958892822 0.05 0.004584715701639652
49 0.05842309445142746 0.05 0.004372282885015011
50 0.05707288533449173 0.05 0.0041725230403244495
51 0.055763594806194305 0.05 0.003983278293162584
52 0.05450395122170448 0.05 0.0038053542375564575
53 0.053282901644706726 0.05 0.003636762034147978
54 0.05210668593645096 0.05 0.003477972000837326
55 0.05096378177404404 0.05 0.003327073995023966
56 0.049865785986185074 0.05 0.0031852570828050375
57 0.04879032075405121 0.05 0.0030493447557091713
58 0.04775363579392433 0.05 0.0029211377259343863
59 0.046748317778110504 0.05 0.002799439709633589
60 0.04577615484595299 0.05 0.00268421764485538
61 0.044826947152614594 0.05 0.0025740531273186207
62 0.043908532708883286 0.05 0.002469659084454179
63 0.043018877506256104 0.05 0.0023705950006842613
64 0.042149171233177185 0.05 0.0022757118567824364
65 0.04131102189421654 0.05 0.0021861051209270954
66 0.04049088433384895 0.05 0.0021001663990318775
67 0.0396958589553833 0.05 0.0020185040775686502
68 0.03892352059483528 0.05 0.0019407221116125584
69 0.0381697453558445 0.05 0.0018662838265299797
70 0.0374373234808445 0.05 0.0017953484784811735
71 0.036725111305713654 0.05 0.0017276884755119681
72 0.03603162616491318 0.05 0.0016630562022328377
73 0.03535526618361473 0.05 0.0016012066043913364
74 0.03469590097665787 0.05 0.0015420394483953714
75 0.03405410423874855 0.05 0.0014855182962492108
76 0.033432506024837494 0.05 0.0014317823806777596
77 0.0328214131295681 0.05 0.0013799192383885384
78 0.0322270542383194 0.05 0.001330394297838211
79 0.03165074810385704 0.05 0.0012832374777644873
80 0.031081421300768852 0.05 0.0012374876532703638
81 0.030527912080287933 0.05 0.0011938050156459212
82 0.029995622113347054 0.05 0.001152537064626813
83 0.029468663036823273 0.05 0.0011123975273221731
84 0.028956402093172073 0.05 0.0010740595171228051
85 0.02845708467066288 0.05 0.0010373372351750731
86 0.027968741953372955 0.05 0.0010020398767665029
87 0.02749362401664257 0.05 0.0009682848467491567
88 0.027027012780308723 0.05 0.0009356969967484474
89 0.026573343202471733 0.05 0.0009045479819178581
90 0.026128070428967476 0.05 0.000874487916007638
91 0.025694817304611206 0.05 0.0008457270450890064
92 0.02527160570025444 0.05 0.0008180970326066017
93 0.024854101240634918 0.05 0.0007912893197499216
94 0.024451591074466705 0.05 0.0007658670074306428
95 0.024053072556853294 0.05 0.0007411058759316802
96 0.023663131520152092 0.05 0.0007172714686021209
97 0.023287924006581306 0.05 0.000694705406203866
98 0.022914119064807892 0.05 0.0006725824205204844
99 0.02255268767476082 0.05 0.0006515319691970944
tuning, 0, 0.0003565435763448477
tuning, 1, 0.0003565435763448477
tuning, 2, 0.00035413025761954486
tuning, 3, 0.00035009061684831977
tuning, 4, 0.0003448915376793593
tuning, 5, 0.00033888043253682554
tuning, 6, 0.000332820403855294
tuning, 7, 0.0003260822268202901
tuning, 8, 0.0003187342663295567
tuning, 9, 0.0003112812992185354
tuning, 10, 0.00030362344114109874
tuning, 11, 0.00029594922671094537
tuning, 12, 0.00028898302116431296
tuning, 13, 0.000282323599094525
tuning, 14, 0.0002758145274128765
tuning, 15, 0.0002701262419577688
tuning, 16, 0.0002647466608323157
tuning, 17, 0.0002590675721876323
tuning, 18, 0.0002536207903176546
tuning, 19, 0.00024849531473591924
tuning, 20, 0.0002435303176753223
tuning, 21, 0.00023899960797280073
tuning, 22, 0.00023464560217689723
tuning, 23, 0.00023012328892946243
tuning, 24, 0.0002257969172205776
tuning, 25, 0.00022158148931339383
tuning, 26, 0.00021745145204477012
tuning, 27, 0.00021386946900747716
tuning, 28, 0.00020988084725104272
tuning, 29, 0.00020637107081711292
tuning, 30, 0.000202871800865978
tuning, 31, 0.00019978260388597846
tuning, 32, 0.00019670234178192914
tuning, 33, 0.00019378249999135733
tuning, 34, 0.00019076814351137727
tuning, 35, 0.00018794272909872234
tuning, 36, 0.00018495036056265235
tuning, 37, 0.00018219594494439662
tuning, 38, 0.00017946356092579663
tuning, 39, 0.00017664991901256144
tuning, 40, 0.00017425246187485754
tuning, 41, 0.00017149261839222163
tuning, 42, 0.00016909901751205325
tuning, 43, 0.00016673319623805583
tuning, 44, 0.000164259341545403
tuning, 45, 0.00016188416338991374
tuning, 46, 0.00015968851221259683
tuning, 47, 0.0001576315553393215
tuning, 48, 0.0001554977206978947
tuning, 49, 0.00015371377230621874
tuning, 50, 0.0001513264433015138
tuning, 51, 0.00014930036559235305
tuning, 52, 0.00014709174865856767
tuning, 53, 0.00014511960034724325
tuning, 54, 0.00014354706218000501
tuning, 55, 0.00014154083328321576
tuning, 56, 0.00014007558638695627
tuning, 57, 0.0001378237211611122
tuning, 58, 0.00013633802882395685
tuning, 59, 0.00013526953989639878
tuning, 60, 0.00013472259161062539
tuning, 61, 0.00013483321527019143
tuning, 62, 0.00013429776299744844
tuning, 63, 0.00013106915866956115
tuning, 64, 0.00012754187628161162
tuning, 65, 0.00012476870324462652
tuning, 66, 0.00012359143875073642
tuning, 67, 0.0001235812669619918
tuning, 68, 0.00012341095134615898
tuning, 69, 0.00012176480959169567
tuning, 70, 0.00011881392856594175
tuning, 71, 0.0001166199945146218
tuning, 72, 0.00011597380216699094
tuning, 73, 0.00011631464440142736
tuning, 74, 0.00011483244452392682
tuning, 75, 0.00011244191409787163
tuning, 76, 0.00011011744936695322
tuning, 77, 0.00010886287782341242
tuning, 78, 0.00010807682701852173
tuning, 79, 0.00010749009379651397
tuning, 80, 0.00010607890726532787
tuning, 81, 0.00010450256377225742
tuning, 82, 0.00010318957356503233
tuning, 83, 0.00010152710456168279
tuning, 84, 0.00010052948346128687
tuning, 85, 9.991695696953684e-05
tuning, 86, 9.961886098608375e-05
tuning, 87, 9.812815551413223e-05
tuning, 88, 9.695316839497536e-05
tuning, 89, 9.537707956042141e-05
tuning, 90, 9.39816382015124e-05
tuning, 91, 9.289546869695187e-05
tuning, 92, 9.207740367855877e-05
tuning, 93, 9.189717820845544e-05
tuning, 94, 9.119301103055477e-05
tuning, 95, 9.030812361743301e-05
tuning, 96, 8.835188782541081e-05
tuning, 97, 8.714052819414064e-05
tuning, 98, 8.59254359966144e-05
tuning, 99, 8.46746115712449e-05
tuning, 100, 8.346013783011585e-05
tuning, 101, 8.244135824497789e-05
tuning, 102, 8.157365664374083e-05
tuning, 103, 8.064814028330147e-05
tuning, 104, 7.985810225363821e-05
tuning, 105, 7.886682578828186e-05
tuning, 106, 7.862338679842651e-05
tuning, 107, 7.868848479120061e-05
tuning, 108, 7.763672329019755e-05
tuning, 109, 7.708262273808941e-05
tuning, 110, 7.66771991038695e-05
tuning, 111, 7.599897071486339e-05
tuning, 112, 7.657019887119532e-05
tuning, 113, 7.458280015271157e-05
tuning, 114, 7.36162401153706e-05
tuning, 115, 7.184906280599535e-05
tuning, 116, 6.907580973347649e-05
tuning, 117, 6.664838292635977e-05
tuning, 118, 6.65625193505548e-05
tuning, 119, 6.831922655692324e-05
tuning, 120, 6.829298217780888e-05
tuning, 121, 6.718452641507611e-05
tuning, 122, 6.294510967563838e-05
tuning, 123, 6.09692870057188e-05
tuning, 124, 6.1022401496302336e-05
tuning, 125, 6.16039615124464e-05
tuning, 126, 6.039006620994769e-05
tuning, 127, 5.877339208382182e-05
tuning, 128, 5.7973633374786004e-05
tuning, 129, 5.609117943095043e-05
tuning, 130, 5.490817056852393e-05
tuning, 131, 5.4193573305383325e-05
tuning, 132, 5.422679168987088e-05
tuning, 133, 5.3711024520453066e-05
tuning, 134, 5.3428833780344576e-05
tuning, 135, 5.238808080321178e-05
tuning, 136, 5.1055201765848324e-05
tuning, 137, 5.040362157160416e-05
tuning, 138, 4.8850401071831584e-05
tuning, 139, 4.821935362997465e-05
tuning, 140, 4.77619469165802e-05
tuning, 141, 4.7739111323608086e-05
tuning, 142, 4.7408575483132154e-05
tuning, 143, 4.721960431197658e-05
tuning, 144, 4.6893379476387054e-05
tuning, 145, 4.551254096440971e-05
tuning, 146, 4.529666330199689e-05
tuning, 147, 4.469466512091458e-05
tuning, 148, 4.417577292770147e-05
tuning, 149, 4.389011155581102e-05
tuning, 150, 4.234393418300897e-05
tuning, 151, 4.134229675401002e-05
tuning, 152, 4.079358768649399e-05
tuning, 153, 4.041545616928488e-05
tuning, 154, 3.9743415982229635e-05
tuning, 155, 3.96380819438491e-05
tuning, 156, 3.970710531575605e-05
tuning, 157, 4.044773959321901e-05
tuning, 158, 4.1154631617246196e-05
tuning, 159, 3.9018694224068895e-05
tuning, 160, 3.827700129477307e-05
tuning, 161, 3.83556580345612e-05
tuning, 162, 3.6881254345644265e-05
tuning, 163, 3.8307458453346044e-05
tuning, 164, 3.8216552638914436e-05
tuning, 165, 3.5899385693483055e-05
tuning, 166, 3.515351636451669e-05
tuning, 167, 3.4878012229455635e-05
tuning, 168, 3.3258645999012515e-05
tuning, 169, 3.4115088055841625e-05
tuning, 170, 3.3855299989227206e-05
tuning, 171, 3.442559318500571e-05
tuning, 172, 3.877107155858539e-05
tuning, 173, 3.4349843190284446e-05
tuning, 174, 3.281292083556764e-05
tuning, 175, 3.4806911571649835e-05
tuning, 176, 3.0778348445892334e-05
tuning, 177, 3.3506625186419114e-05
tuning, 178, 3.276048300904222e-05
tuning, 179, 3.0718852940481156e-05
tuning, 180, 3.8100381061667576e-05
tuning, 181, 3.085330536123365e-05
tuning, 182, 3.330328763695434e-05
tuning, 183, 3.493262192932889e-05
tuning, 184, 2.8263937565498054e-05
tuning, 185, 3.719892629305832e-05
tuning, 186, 2.818751090671867e-05
tuning, 187, 3.502526305965148e-05
tuning, 188, 3.4685999708017334e-05
tuning, 189, 2.7752532332669944e-05
tuning, 190, 3.700504748849198e-05
tuning, 191, 2.5777884729905054e-05
tuning, 192, 3.6040048144059256e-05
tuning, 193, 2.6750960387289524e-05
tuning, 194, 3.3594649721635506e-05
tuning, 195, 3.0916409741621464e-05
tuning, 196, 2.7775706257671118e-05
tuning, 197, 3.45437292708084e-05
tuning, 198, 2.420924101897981e-05
tuning, 199, 3.310567990411073e-05
tuning, 200, 2.2697675376548432e-05
tuning, 201, 3.28319838445168e-05
tuning, 202, 2.3202777811093256e-05
tuning, 203, 3.0954412068240345e-05
tuning, 204, 2.3956612494657747e-05
tuning, 205, 2.7091735319118015e-05
tuning, 206, 2.51593446591869e-05
tuning, 207, 2.3829270503483713e-05
tuning, 208, 2.564139686000999e-05
tuning, 209, 2.2297539544524625e-05
tuning, 210, 2.50748034886783e-05
tuning, 211, 2.102112557622604e-05
tuning, 212, 2.41009438468609e-05
tuning, 213, 1.967750722542405e-05
tuning, 214, 2.3208318452816457e-05
tuning, 215, 1.916256769618485e-05
tuning, 216, 2.2730569980922155e-05
tuning, 217, 1.8909891878138296e-05
tuning, 218, 2.1164145437069237e-05
tuning, 219, 1.8431233911542222e-05
tuning, 220, 2.044167740677949e-05
tuning, 221, 1.8099104636348784e-05
tuning, 222, 2.0475330529734492e-05
tuning, 223, 1.777743273123633e-05
tuning, 224, 1.9671897462103516e-05
tuning, 225, 1.7576599930180237e-05
tuning, 226, 1.8713390090852045e-05
tuning, 227, 1.7315616787527688e-05
tuning, 228, 1.834070098993834e-05
tuning, 229, 1.6937618056545034e-05
tuning, 230, 1.823298225644976e-05
tuning, 231, 1.6658806998748332e-05
tuning, 232, 1.7388767446391284e-05
tuning, 233, 1.637357308936771e-05
tuning, 234, 1.7361830032314174e-05
tuning, 235, 1.6085567040136084e-05
tuning, 236, 1.7506068616057746e-05
tuning, 237, 1.581222386448644e-05
tuning, 238, 1.673234328336548e-05
tuning, 239, 1.551323657622561e-05
tuning, 240, 1.608192724233959e-05
tuning, 241, 1.5348306988016702e-05
tuning, 242, 1.6277901522698812e-05
tuning, 243, 1.4980028026911896e-05
tuning, 244, 1.6123929526656866e-05
tuning, 245, 1.4753881259821355e-05
tuning, 246, 1.5515208360739052e-05
tuning, 247, 1.4534889487549663e-05
tuning, 248, 1.5346060536103323e-05
tuning, 249, 1.4277846275945194e-05
tuning, 250, 1.4953870959288906e-05
tuning, 251, 1.4092616765992716e-05
tuning, 252, 1.4769214430998545e-05
tuning, 253, 1.3845604371454101e-05
tuning, 254, 1.4778590411879122e-05
tuning, 255, 1.3676897651748732e-05
tuning, 256, 1.4643215763499029e-05
tuning, 257, 1.355497988697607e-05
tuning, 258, 1.408491880283691e-05
tuning, 259, 1.3308883353602141e-05
tuning, 260, 1.3849852621206082e-05
tuning, 261, 1.3139177099219523e-05
tuning, 262, 1.3505384231393691e-05
tuning, 263, 1.31684564621537e-05
tuning, 264, 1.2975799108971842e-05
tuning, 265, 1.3058629519946408e-05
tuning, 266, 1.2789513675670605e-05
tuning, 267, 1.3042145837971475e-05
tuning, 268, 1.266196613869397e-05
tuning, 269, 1.3154599400877487e-05
tuning, 270, 1.2412456271704286e-05
