
  0%|                                                                                                                                                                                                                                                                                            | 0/10 [00:00<?, ?it/s]
0, 0.1364392638206482
1, 0.1364392638206482
2, 0.12979236245155334
3, 0.11694824695587158
4, 0.09893612563610077
5, 0.07756035774946213
6, 0.055496156215667725
7, 0.038770198822021484
8, 0.027035435661673546
9, 0.019472811371088028
10, 0.015018539503216743
11, 0.012625272385776043
12, 0.011442840099334717
13, 0.010874459519982338
14, 0.010546840727329254
15, 0.010251477360725403
16, 0.00988452322781086
17, 0.009414690546691418
18, 0.008851699531078339
19, 0.008223864249885082
20, 0.0075646876357495785
21, 0.006907550618052483
22, 0.006282723508775234
23, 0.005717627704143524
24, 0.005225461907684803
25, 0.004811940714716911
26, 0.0044736964628100395
27, 0.004202611744403839
28, 0.0039872522465884686
29, 0.003812904469668865
30, 0.0036649531684815884
31, 0.003530854359269142
32, 0.0034005558118224144
33, 0.0032666954211890697
34, 0.0031258712988346815
35, 0.0029771197587251663
36, 0.0028215337079018354
37, 0.002661887090653181
38, 0.002501371083781123
39, 0.0023437875788658857
40, 0.0021928614005446434
41, 0.0020514382049441338
42, 0.0019215530483052135
43, 0.0018043145537376404
44, 0.0016998895443975925
45, 0.0016077107284218073
46, 0.0015265890397131443
47, 0.001454803510569036
48, 0.0013906600652262568
49, 0.001332431798800826
50, 0.001278670271858573
51, 0.0012283636024221778
52, 0.0011806620750576258
53, 0.0011352439178153872
54, 0.0010918076150119305
55, 0.0010506018297746778
56, 0.0010116533376276493
57, 0.0009750352473929524
58, 0.0009409409831278026
59, 0.0009092945838347077
60, 0.0008799689821898937
61, 0.0008526674937456846
62, 0.0008272160193882883
63, 0.0008034251513890922
64, 0.000780982431024313
65, 0.0007597508374601603
66, 0.0007394772837869823
67, 0.0007201209664344788
68, 0.0007016033632680774
69, 0.0006839568959549069
70, 0.0006670764414593577
71, 0.0006511480314657092
72, 0.000636083772405982
73, 0.0006219284841790795
74, 0.0006086176726967096
75, 0.0005961493588984013
76, 0.0005845270352438092
77, 0.000573601049836725
78, 0.0005633572000078857
79, 0.0005537125980481505
80, 0.0005446102004498243
81, 0.0005359647329896688
82, 0.0005277551244944334
83, 0.0005199135048314929
84, 0.0005124227609485388
85, 0.0005052833585068583
86, 0.0004984315601177514
87, 0.0004919019411318004
88, 0.000485649099573493
89, 0.000479676469694823
90, 0.00047397459275089204
91, 0.0004685052845161408
92, 0.0004632812342606485
93, 0.00045828375732526183
94, 0.00045348572893999517
95, 0.0004488839767873287
96, 0.00044446479296311736
97, 0.0004402217164169997
98, 0.00043613137677311897
99, 0.0004322160384617746
100, 0.0004284265451133251
101, 0.0004247948236297816
102, 0.0004212838248349726
103, 0.00041790236718952656
104, 0.0004146271385252476
105, 0.00041146459989249706
106, 0.00040840645669959486
107, 0.0004054579185321927
108, 0.00040260644163936377
109, 0.000399838259909302
110, 0.00039715965976938605
111, 0.0003945759672205895
112, 0.0003920742019545287
113, 0.0003896545968018472
114, 0.00038729593507014215
115, 0.0003850456268992275
116, 0.00038284691981971264
117, 0.00038071779999881983
118, 0.00037867529317736626
119, 0.0003766735317185521
120, 0.0003747521841432899
121, 0.00037286937003955245
122, 0.00037105544470250607
123, 0.00036930153146386147
124, 0.0003676069318316877
125, 0.00036595622077584267
126, 0.00036435958463698626
127, 0.0003628201666288078
128, 0.00036132775130681694
129, 0.0003598578623495996
130, 0.0003584708902053535
131, 0.00035710609517991543
132, 0.00035578804090619087
133, 0.0003545067156665027
134, 0.0003532783593982458
135, 0.0003520853933878243
136, 0.00035091707832179964
137, 0.00034981139469891787
138, 0.00034872861579060555
139, 0.0003476790734566748
140, 0.00034667490399442613
141, 0.00034569791750982404
142, 0.0003447585040703416
143, 0.0003438431303948164
144, 0.0003429605858400464
145, 0.0003421129658818245
146, 0.000341302074957639
147, 0.0003405147581361234
148, 0.0003397547116037458
149, 0.00033902807626873255
150, 0.00033833281486295164
151, 0.0003376489912625402
152, 0.0003370055928826332
153, 0.00033638597233220935
154, 0.00033579132286831737
155, 0.0003352176572661847
156, 0.00033466791501268744
157, 0.0003341386909596622
158, 0.00033365035778842866
159, 0.0003331681655254215
160, 0.00033272005384787917
161, 0.00033228826941922307
162, 0.00033186929067596793
163, 0.00033147711656056345
164, 0.00033110202639363706
165, 0.0003307440783828497
166, 0.0003304141282569617
167, 0.00033009436447173357
168, 0.0003297921211924404
169, 0.0003295110072940588
170, 0.0003292514884378761
171, 0.00032899490906856954
172, 0.00032877002377063036
173, 0.0003285491548012942
174, 0.00032834848389029503
175, 0.00032816705061122775
176, 0.0003279820957686752
177, 0.00032782088965177536
178, 0.0003276779316365719
179, 0.0003275409108027816
180, 0.00032741681206971407
181, 0.00032729882514104247
182, 0.0003272021422162652
183, 0.00032710848608985543
184, 0.00032703118631616235
185, 0.00032695732079446316
186, 0.00032688642386347055
187, 0.00032683004974387586
188, 0.00032678243587724864
189, 0.00032674390240572393
190, 0.0003266981220804155
191, 0.0003266723360866308
192, 0.00032665248727425933
193, 0.00032663438469171524
194, 0.00032661642762832344
195, 0.00032660257420502603
196, 0.00032660079887136817
197, 0.0003265945124439895
198, 0.00032658997224643826
199, 0.0003265886043664068
0 2.458739995956421 0.05 7.744009494781494
1 2.3039681911468506 0.05 6.799761772155762
2 2.1422362327575684 0.05 5.878620147705078
3 1.9422515630722046 0.05 4.832275390625
4 1.6601263284683228 0.05 3.5303921699523926
5 1.259308934211731 0.05 2.0314459800720215
6 0.8230870962142944 0.05 0.8678252696990967
7 0.5880624651908875 0.05 0.4429835081100464
8 0.4834875166416168 0.05 0.29944097995758057
9 0.40015119314193726 0.05 0.20511099696159363
10 0.3427261710166931 0.05 0.1504649519920349
11 0.3000861406326294 0.05 0.11535397171974182
12 0.26755431294441223 0.05 0.09169899672269821
13 0.24191789329051971 0.05 0.0749681293964386
14 0.22105205059051514 0.05 0.06259357929229736
15 0.20383134484291077 0.05 0.053220950067043304
16 0.18942375481128693 0.05 0.04596312716603279
17 0.17718929052352905 0.05 0.040217552334070206
18 0.1666557937860489 0.05 0.03557799756526947
19 0.157439723610878 0.05 0.03175187110900879
20 0.14929796755313873 0.05 0.028552787378430367
21 0.14199519157409668 0.05 0.02582782879471779
22 0.13539163768291473 0.05 0.023481424897909164
23 0.1293994039297104 0.05 0.021448910236358643
24 0.12390920519828796 0.05 0.01966744288802147
25 0.11887761950492859 0.05 0.018102595582604408
26 0.11423393338918686 0.05 0.016715945675969124
27 0.10993946343660355 0.05 0.015482744202017784
28 0.10595104843378067 0.05 0.014379747211933136
29 0.1022462323307991 0.05 0.013391688466072083
30 0.09877882897853851 0.05 0.012498804368078709
31 0.09552648663520813 0.05 0.011689296923577785
32 0.09247506409883499 0.05 0.010954435914754868
33 0.08960102498531342 0.05 0.01028410904109478
34 0.08688430488109589 0.05 0.00966992974281311
35 0.08431055396795273 0.05 0.009105515666306019
36 0.08187384903430939 0.05 0.008586796000599861
37 0.07955017685890198 0.05 0.008106306195259094
38 0.07734104245901108 0.05 0.00766232842579484
39 0.07523317635059357 0.05 0.007250359281897545
40 0.07321789115667343 0.05 0.00686712795868516
41 0.07129625231027603 0.05 0.006511395797133446
42 0.06945884972810745 0.05 0.006180105730891228
43 0.06768171489238739 0.05 0.005867909640073776
44 0.06598488986492157 0.05 0.005577372387051582
45 0.06436106562614441 0.05 0.005306243430823088
46 0.06278964877128601 0.05 0.005050295498222113
47 0.0612763948738575 0.05 0.004809801932424307
48 0.059823404997587204 0.05 0.004584404174238443
49 0.058426134288311005 0.05 0.004372754134237766
50 0.057069964706897736 0.05 0.004172111861407757
51 0.05576334521174431 0.05 0.0039832573384046555
52 0.05451042205095291 0.05 0.003806272055953741
53 0.05328046903014183 0.05 0.003636443056166172
54 0.05210334435105324 0.05 0.0034775384701788425
55 0.050969213247299194 0.05 0.003327795071527362
56 0.04986166954040527 0.05 0.003184742759913206
57 0.04879113659262657 0.05 0.0030494574457406998
58 0.04775460809469223 0.05 0.002921266946941614
59 0.04675329476594925 0.05 0.0028000460006296635
60 0.04577604681253433 0.05 0.0026842146180570126
61 0.044826529920101166 0.05 0.0025740142446011305
62 0.043907828629016876 0.05 0.0024695885367691517
63 0.04301940277218819 0.05 0.002370661124587059
64 0.04215165600180626 0.05 0.00227598799392581
65 0.04130981117486954 0.05 0.0021859847474843264
66 0.04049120098352432 0.05 0.002100206445902586
67 0.03969677910208702 0.05 0.002018604427576065
68 0.038925137370824814 0.05 0.0019408906809985638
69 0.03817184641957283 0.05 0.0018664959352463484
70 0.037436891347169876 0.05 0.0017953135538846254
71 0.03672600910067558 0.05 0.0017277788138017058
72 0.036031242460012436 0.05 0.0016630265163257718
73 0.035355087369680405 0.05 0.0016011960105970502
74 0.03469520062208176 0.05 0.00154198263771832
75 0.034056369215250015 0.05 0.0014857214409857988
76 0.03343256935477257 0.05 0.001431792974472046
77 0.032821666449308395 0.05 0.0013799455482512712
78 0.03222622722387314 0.05 0.0013303307350724936
79 0.031645648181438446 0.05 0.0012828288599848747
80 0.031081872060894966 0.05 0.001237527932971716
81 0.030532460659742355 0.05 0.0011941647389903665
82 0.029993178322911263 0.05 0.00115235336124897
83 0.02947159670293331 0.05 0.0011126230238005519
84 0.028955891728401184 0.05 0.001074025291018188
85 0.02845974639058113 0.05 0.0010375349083915353
86 0.027969876304268837 0.05 0.0010021247435361147
87 0.027493689209222794 0.05 0.0009682929376140237
88 0.027025217190384865 0.05 0.0009355760412290692
89 0.026571223512291908 0.05 0.000904406770132482
90 0.026129968464374542 0.05 0.0008746181847527623
91 0.025692172348499298 0.05 0.0008455559145659208
92 0.02527177520096302 0.05 0.00081811094423756
93 0.02485358528792858 0.05 0.0007912591681815684
94 0.02444712445139885 0.05 0.0007655899971723557
95 0.024054139852523804 0.05 0.0007411743281409144
96 0.023664647713303566 0.05 0.0007173659978434443
97 0.023284099996089935 0.05 0.0006944797933101654
98 0.022913048043847084 0.05 0.0006725218845531344
99 0.022550394758582115 0.05 0.0006514018168672919
100 0.022196553647518158 0.05 0.0006311196484602988
101 0.021849466487765312 0.05 0.0006115364376455545
102 0.021511534228920937 0.05 0.0005927662714384496
103 0.02117365226149559 0.05 0.0005742913344874978
104 0.02084934152662754 0.05 0.0005568336346186697
105 0.020529750734567642 0.05 0.0005398935172706842
106 0.02021883986890316 0.05 0.0005236645229160786
107 0.01990974135696888 0.05 0.0005077756941318512
108 0.019614776596426964 0.05 0.0004928417038172483
109 0.0193159356713295 0.05 0.00047793873818591237
110 0.019030826166272163 0.05 0.00046393374213948846
111 0.018745316192507744 0.05 0.0004501178627833724
112 0.018470166251063347 0.05 0.00043700082460418344
113 0.018199002370238304 0.05 0.00042426373693160713
114 0.017929770052433014 0.05 0.0004118036013096571
115 0.017671944573521614 0.05 0.00040004547918215394
116 0.01741708070039749 0.05 0.0003885898331645876
117 0.0171660166233778 0.05 0.00037746765883639455
118 0.01692303456366062 0.05 0.0003668573626782745
119 0.016679424792528152 0.05 0.0003563714271876961
120 0.0164442490786314 0.05 0.0003463926841504872
121 0.016209745779633522 0.05 0.0003365837619639933
122 0.015982696786522865 0.05 0.0003272207686677575
123 0.015761297196149826 0.05 0.00031821796437725425
124 0.01554214209318161 0.05 0.00030943003366701305
125 0.015325062908232212 0.05 0.00030084673198871315
126 0.015114043839275837 0.05 0.00029261867166496813
127 0.014906016178429127 0.05 0.00028461901820264757
128 0.014703181572258472 0.05 0.0002769257116597146
129 0.014503947459161282 0.05 0.0002694716677069664
130 0.014307672157883644 0.05 0.0002622277243062854
131 0.014113188721239567 0.05 0.00025514731532894075
132 0.013926205225288868 0.05 0.0002484312863089144
133 0.013738593086600304 0.05 0.00024178273451980203
134 0.013560422696173191 0.05 0.00023555217194370925
135 0.013373312540352345 0.05 0.0002290966222062707
136 0.013201679103076458 0.05 0.00022325388272292912
137 0.013026044704020023 0.05 0.00021735308109782636
138 0.012860050424933434 0.05 0.0002118488191626966
139 0.012690668925642967 0.05 0.00020630500512197614
140 0.012527368031442165 0.05 0.0002010297612287104
141 0.012364755384624004 0.05 0.00019584468100219965
142 0.012206366285681725 0.05 0.0001908593694679439
143 0.012049445882439613 0.05 0.00018598367751110345
144 0.01189644169062376 0.05 0.00018129042291548103
145 0.011745462194085121 0.05 0.00017671806563157588
146 0.011597299948334694 0.05 0.00017228777869604528
147 0.011451233178377151 0.05 0.00016797521675471216
148 0.011309863068163395 0.05 0.00016385337221436203
149 0.011167933233082294 0.05 0.00015976671420503408
150 0.011029841378331184 0.05 0.0001558400981593877
151 0.0108896279707551 0.05 0.00015190313570201397
152 0.01075655221939087 0.05 0.00014821319200564176
153 0.01062479242682457 0.05 0.00014460444799624383
154 0.010496185161173344 0.05 0.00014112491044215858
155 0.010365305468440056 0.05 0.00013762741582468152
156 0.010239771567285061 0.05 0.00013431398838292807
157 0.01011521928012371 0.05 0.00013106637925375253
158 0.009992172941565514 0.05 0.00012789707398042083
159 0.009877113625407219 0.05 0.00012496857380028814
160 0.009753907099366188 0.05 0.00012187031097710133
161 0.009636160917580128 0.05 0.00011894569615833461
162 0.009524107910692692 0.05 0.00011619550787145272
163 0.009411059319972992 0.05 0.00011345345410518348
164 0.00930047407746315 0.05 0.00011080285185016692
165 0.009188499301671982 0.05 0.0001081508380593732
166 0.009081906639039516 0.05 0.0001056561668519862
167 0.008976628072559834 0.05 0.0001032207946991548
168 0.00887203123420477 0.05 0.00010082931839860976
169 0.008767921477556229 0.05 9.847680485108867e-05
170 0.008668583817780018 0.05 9.625803795643151e-05
171 0.00856874231249094 0.05 9.405348100699484e-05
172 0.00847017765045166 0.05 9.190215496346354e-05
173 0.008372464217245579 0.05 8.979400445241481e-05
174 0.008279532194137573 0.05 8.781167707638815e-05
175 0.00818233098834753 0.05 8.576198160881177e-05
176 0.008088006637990475 0.05 8.379607606912032e-05
177 0.008000848814845085 0.05 8.199979492928833e-05
178 0.007909252308309078 0.05 8.013303158804774e-05
179 0.007821287028491497 0.05 7.836048462195322e-05
180 0.007732439786195755 0.05 7.65903023420833e-05
181 0.00764495600014925 0.05 7.486704998882487e-05
182 0.007563234772533178 0.05 7.327500497922301e-05
183 0.007480640895664692 0.05 7.168335287133232e-05
184 0.007395789958536625 0.05 7.006640953477472e-05
185 0.007314781192690134 0.05 6.853988452348858e-05
186 0.007233500014990568 0.05 6.702513201162219e-05
187 0.007156931329518557 0.05 6.561369082191959e-05
188 0.007075081579387188 0.05 6.412148650269955e-05
189 0.007001006510108709 0.05 6.278582441154867e-05
190 0.006923089735209942 0.05 6.139608012745157e-05
191 0.006850508041679859 0.05 6.0115475207567215e-05
192 0.006779419258236885 0.05 5.8874295064015314e-05
193 0.006705236621201038 0.05 5.7592897064751014e-05
194 0.006631792057305574 0.05 5.633813634631224e-05
195 0.006561542395502329 0.05 5.515089651453309e-05
196 0.006491351872682571 0.05 5.39772845513653e-05
197 0.00642244191840291 0.05 5.2837356633972377e-05
198 0.006354792974889278 0.05 5.1730123232118785e-05
199 0.006288403179496527 0.05 5.065489676780999e-05
200 0.006222360301762819 0.05 4.9596499593462795e-05
201 0.006157768424600363 0.05 4.857215390074998e-05
202 0.006090979557484388 0.05 4.7524219553451985e-05
203 0.006028537638485432 0.05 4.6554821892641485e-05
204 0.0059657287783920765 0.05 4.5589800720335916e-05
205 0.005903353448957205 0.05 4.464144876692444e-05
206 0.005843578837811947 0.05 4.374199124868028e-05
207 0.0057840850204229355 0.05 4.285584145691246e-05
208 0.0057229045778512955 0.05 4.195403744233772e-05
209 0.005663876421749592 0.05 4.1093036998063326e-05
210 0.005608088336884975 0.05 4.0287508454639465e-05
211 0.00554853118956089 0.05 3.943635965697467e-05
212 0.005493092816323042 0.05 3.8652229704894125e-05
213 0.005437561310827732 0.05 3.7874684494454414e-05
214 0.005383022595196962 0.05 3.711873068823479e-05
215 0.005328944884240627 0.05 3.637668487499468e-05
216 0.0052734250202775 0.05 3.56226519215852e-05
217 0.005222628824412823 0.05 3.493968688417226e-05
218 0.0051726181991398335 0.05 3.427374758757651e-05
219 0.005121121648699045 0.05 3.359471520525403e-05
220 0.005073090083897114 0.05 3.2967487641144544e-05
221 0.005018503870815039 0.05 3.2261847081827e-05
222 0.0049686310812830925 0.05 3.1623807444702834e-05
223 0.00492161326110363 0.05 3.1028139346744865e-05
224 0.004872601944953203 0.05 3.0413228159886785e-05
225 0.0048222835175693035 0.05 2.978833254019264e-05
226 0.004778871312737465 0.05 2.9254410037538037e-05
227 0.004730877932161093 0.05 2.8669765015365556e-05
228 0.004685167223215103 0.05 2.8118416594224982e-05
229 0.004636385478079319 0.05 2.753593071247451e-05
230 0.004593962803483009 0.05 2.703433347051032e-05
231 0.004551227670162916 0.05 2.6533700292930007e-05
232 0.004505056422203779 0.05 2.599807339720428e-05
233 0.004461262840777636 0.05 2.5495079171378165e-05
234 0.0044189272448420525 0.05 2.5013494450831786e-05
235 0.0043752798810601234 0.05 2.4521799787180498e-05
236 0.0043349904008209705 0.05 2.4072267478914e-05
237 0.004290753044188023 0.05 2.3583475922350772e-05
238 0.004252468701452017 0.05 2.3164502636063844e-05
239 0.004215138033032417 0.05 2.275958286190871e-05
240 0.004172999411821365 0.05 2.2306803657556884e-05
241 0.00413496932014823 0.05 2.1902076696278527e-05
242 0.004095556680113077 0.05 2.1486548575921915e-05
243 0.004057868849486113 0.05 2.1092924725962803e-05
244 0.004018782638013363 0.05 2.068853791570291e-05
245 0.003982997499406338 0.05 2.032173506449908e-05
246 0.003944345749914646 0.05 1.9929237168980762e-05
247 0.003907369915395975 0.05 1.9557337509468198e-05
248 0.0038715051487088203 0.05 1.919996429933235e-05
249 0.003835732815787196 0.05 1.8846789316739887e-05
250 0.003800663398578763 0.05 1.850373882916756e-05
251 0.003766442881897092 0.05 1.8172031559515744e-05
252 0.003729643300175667 0.05 1.781867104000412e-05
253 0.003696177853271365 0.05 1.7500336980447173e-05
254 0.0036622958723455667 0.05 1.71809624589514e-05
255 0.003629445331171155 0.05 1.687412259343546e-05
256 0.003598148003220558 0.05 1.658436121942941e-05
257 0.003566901898011565 0.05 1.629757935006637e-05
258 0.0035321153700351715 0.05 1.5981240721885115e-05
259 0.0034991137217730284 0.05 1.5683999663451687e-05
260 0.003469200571998954 0.05 1.5416986570926383e-05
261 0.0034370687790215015 0.05 1.5132725820876658e-05
262 0.0034075623843818903 0.05 1.4874020052957349e-05
263 0.0033729635179042816 0.05 1.4573504813597538e-05
264 0.0033466308377683163 0.05 1.4346843272505794e-05
265 0.00331900198943913 0.05 1.4110933079791721e-05
266 0.0032878706697374582 0.05 1.384746065014042e-05
267 0.0032585749868303537 0.05 1.3601793398265727e-05
268 0.003231690963730216 0.05 1.3378283256315626e-05
269 0.00320227537304163 0.05 1.3135845620126929e-05
270 0.003171763848513365 0.05 1.2886720469396096e-05
271 0.0031421834137290716 0.05 1.2647473340621218e-05
272 0.0031175685580819845 0.05 1.245009661943186e-05
273 0.0030895888339728117 0.05 1.222762239194708e-05
274 0.0030643229838460684 0.05 1.2028453056700528e-05
275 0.0030340240336954594 0.05 1.1791763427027036e-05
276 0.0030128464568406343 0.05 1.1627723324636463e-05
277 0.002981458557769656 0.05 1.1386709957150742e-05
278 0.002957328222692013 0.05 1.1203141184523702e-05
279 0.0029330409597605467 0.05 1.1019882549589965e-05
280 0.0029052605386823416 0.05 1.0812120308401063e-05
