
  0%|                                                                                                                                                                                                                                                                                                                                                                              | 0/10 [00:00<?, ?it/s]
0, 0.1364392638206482
1, 0.1364392638206482
2, 0.12979242205619812
3, 0.11694799363613129
4, 0.09893615543842316
5, 0.07756021618843079
6, 0.05549609661102295
7, 0.03877323865890503
8, 0.02704549953341484
9, 0.01948968879878521
10, 0.01503821276128292
11, 0.012640612199902534
12, 0.011447673663496971
13, 0.010865209624171257
14, 0.010523642413318157
15, 0.010215438902378082
16, 0.009841399267315865
17, 0.009367035701870918
18, 0.00880507007241249
19, 0.008180837146937847
20, 0.007529824040830135
21, 0.0068802363239228725
22, 0.006261865608394146
23, 0.005697017535567284
24, 0.005201016552746296
25, 0.004777964204549789
26, 0.004425437189638615
27, 0.004136774223297834
28, 0.0039021628908813
29, 0.003708982840180397
30, 0.0035452384036034346
31, 0.0034007576759904623
32, 0.0032659582793712616
33, 0.0031346052419394255
34, 0.003003012156113982
35, 0.002868832554668188
36, 0.0027320771478116512
37, 0.002593451179563999
38, 0.002454775385558605
39, 0.0023182120639830828
40, 0.002185927703976631
41, 0.0020598291885107756
42, 0.0019417121075093746
43, 0.0018323170952498913
44, 0.001732120057567954
45, 0.0016413293778896332
46, 0.0015595031436532736
47, 0.0014860602095723152
48, 0.0014202594757080078
49, 0.0013612231705337763
50, 0.001307933940552175
51, 0.001259656623005867
52, 0.0012156276497989893
53, 0.0011752427089959383
54, 0.0011379234492778778
55, 0.001103369751945138
56, 0.0010712824296206236
57, 0.0010414093267172575
58, 0.0010135918855667114
59, 0.0009876867989078164
60, 0.0009635891765356064
61, 0.0009412604267708957
62, 0.0009204826201312244
63, 0.0009013208909891546
64, 0.000883615342900157
65, 0.0008672794210724533
66, 0.000852223252877593
67, 0.0008383337408304214
68, 0.0008256059372797608
69, 0.0008138632401823997
70, 0.0008030901080928743
71, 0.0007932388107292354
72, 0.0007841416518203914
73, 0.0007758333231322467
74, 0.0007682535797357559
75, 0.0007613016059622169
76, 0.0007549035362899303
77, 0.0007491155993193388
78, 0.0007438448956236243
79, 0.0007390668615698814
80, 0.0007347298669628799
81, 0.0007308227359317243
82, 0.0007273310329765081
83, 0.0007242322899401188
84, 0.000721435877494514
85, 0.0007189358584582806
86, 0.0007168290903791785
87, 0.0007149597513489425
88, 0.0007133375620469451
89, 0.0007119881338439882
90, 0.0007108490681275725
91, 0.0007098789210431278
92, 0.0007091101142577827
93, 0.0007084835087880492
94, 0.0007079998031258583
95, 0.0007076626643538475
96, 0.0007074158056639135
97, 0.0007072589360177517
98, 0.0007071838481351733
99, 0.0007071429863572121
0 2.4191088676452637 0.05 7.640537261962891 0.7837105393409729
1 2.2590577602386475 0.05 6.662969589233398 0.7295675277709961
2 2.0915794372558594 0.05 5.711653709411621 0.678347110748291
3 1.8938207626342773 0.05 4.682641983032227 0.6386715173721313
4 1.6141051054000854 0.05 3.4015488624572754 0.6276503801345825
5 1.2362284660339355 0.05 1.9953111410140991 0.6396766901016235
6 0.8045410513877869 0.05 0.8451027870178223 0.6673869490623474
7 0.5749062895774841 0.05 0.4315263032913208 0.6449464559555054
8 0.4720747768878937 0.05 0.29096096754074097 0.6273205280303955
9 0.39230653643608093 0.05 0.20093896985054016 0.6121763586997986
10 0.3378269672393799 0.05 0.14900532364845276 0.5995929837226868
11 0.29668381810188293 0.05 0.11492139101028442 0.5905540585517883
12 0.2651764750480652 0.05 0.09180854260921478 0.5842880606651306
13 0.24006575345993042 0.05 0.07524428516626358 0.579924464225769
14 0.21956384181976318 0.05 0.06294116377830505 0.5767829418182373
15 0.20263925194740295 0.05 0.05361178144812584 0.5745202302932739
16 0.18851961195468903 0.05 0.04640088230371475 0.572927713394165
17 0.176524356007576 0.05 0.04068388789892197 0.5718735456466675
18 0.16619008779525757 0.05 0.03605980426073074 0.571209192276001
19 0.15711583197116852 0.05 0.0322294607758522 0.5708650946617126
20 0.14906491339206696 0.05 0.029011085629463196 0.5707712173461914
21 0.14182931184768677 0.05 0.0262630432844162 0.5708628296852112
22 0.13528206944465637 0.05 0.023894261568784714 0.5710928440093994
23 0.12931624054908752 0.05 0.021833296865224838 0.5714285969734192
24 0.12385422736406326 0.05 0.020027872174978256 0.5718064308166504
25 0.11884201318025589 0.05 0.01843966916203499 0.5722281336784363
26 0.11421102285385132 0.05 0.017030570656061172 0.5726780891418457
27 0.10993735492229462 0.05 0.015779880806803703 0.5731289386749268
28 0.10597173124551773 0.05 0.014661997556686401 0.5735601186752319
29 0.10228409618139267 0.05 0.013659329153597355 0.5739803910255432
30 0.09884392470121384 0.05 0.012755957432091236 0.5743899941444397
31 0.09561705589294434 0.05 0.011936688795685768 0.5747758746147156
32 0.09259205311536789 0.05 0.01119336299598217 0.5751347541809082
33 0.08973786979913712 0.05 0.010513918474316597 0.5754777789115906
34 0.08704610913991928 0.05 0.009892632253468037 0.5758020877838135
35 0.08449921756982803 0.05 0.00932220183312893 0.576093852519989
36 0.08207675814628601 0.05 0.0087953582406044 0.576367974281311
37 0.07977459579706192 0.05 0.008308878168463707 0.5766359567642212
38 0.07758121937513351 0.05 0.007858259603381157 0.5768715143203735
39 0.07548750191926956 0.05 0.00743983406573534 0.5770847797393799
40 0.07348838448524475 0.05 0.007050997111946344 0.5773074626922607
41 0.07156796753406525 0.05 0.006687294691801071 0.5775103569030762
42 0.06972737610340118 0.05 0.006347749847918749 0.5776827931404114
43 0.06795990467071533 0.05 0.00603001844137907 0.5778666734695435
44 0.06626331061124802 0.05 0.00573270209133625 0.5780196189880371
45 0.06462933868169785 0.05 0.005453465506434441 0.5781700015068054
46 0.06305675953626633 0.05 0.0051913028582930565 0.5783063173294067
47 0.061541251838207245 0.05 0.0049447668716311455 0.5784525871276855
48 0.06007251888513565 0.05 0.004711561370640993 0.57857346534729
49 0.058659207075834274 0.05 0.0044924733228981495 0.5786874890327454
50 0.05729496479034424 0.05 0.0042859395034611225 0.5788007378578186
51 0.05596967786550522 0.05 0.004089957103133202 0.5788995027542114
52 0.05469707399606705 0.05 0.0039060814306139946 0.5790188312530518
53 0.0534549355506897 0.05 0.00373068661428988 0.5791019797325134
54 0.05225784704089165 0.05 0.00356546463444829 0.5791991949081421
55 0.05109914764761925 0.05 0.003409105818718672 0.5792840719223022
56 0.04997525364160538 0.05 0.0032607922330498695 0.5793561935424805
57 0.048887066543102264 0.05 0.0031203338876366615 0.5794387459754944
58 0.047827817499637604 0.05 0.0029865805990993977 0.5795060396194458
59 0.046798769384622574 0.05 0.0028594466857612133 0.5795712471008301
60 0.0458102822303772 0.05 0.0027399277314543724 0.5796288847923279
61 0.04484046623110771 0.05 0.002625145250931382 0.5796995759010315
62 0.04390105605125427 0.05 0.002516303677111864 0.5797592401504517
63 0.04299193248152733 0.05 0.0024131652899086475 0.5798143148422241
64 0.04210091009736061 0.05 0.0023141743149608374 0.5798598527908325
65 0.041244667023420334 0.05 0.0022210008464753628 0.5799102187156677
66 0.040407318621873856 0.05 0.002131734974682331 0.5799564719200134
67 0.039595361799001694 0.05 0.002046924317255616 0.5800046920776367
68 0.03880402073264122 0.05 0.001965923700481653 0.5800409913063049
69 0.038032952696084976 0.05 0.0018885706085711718 0.5800805687904358
70 0.03728562593460083 0.05 0.001815080875530839 0.5801073312759399
71 0.036554042249917984 0.05 0.0017445520497858524 0.5801535844802856
72 0.03584839403629303 0.05 0.0016778477001935244 0.5801782608032227
73 0.035155266523361206 0.05 0.001613592728972435 0.5802120566368103
74 0.0344853401184082 0.05 0.001552680740132928 0.5802363753318787
75 0.03383118286728859 0.05 0.00149433349724859 0.5802688002586365
76 0.03319269046187401 0.05 0.0014384607784450054 0.5802887082099915
77 0.032571274787187576 0.05 0.0013851046096533537 0.5803111791610718
78 0.031966909766197205 0.05 0.0013341802405193448 0.5803377628326416
79 0.031377390027046204 0.05 0.0012854250380769372 0.580348014831543
80 0.030807800590991974 0.05 0.0012391803320497274 0.580359697341919
81 0.030236968770623207 0.05 0.001193684758618474 0.5803868174552917
82 0.029695376753807068 0.05 0.001151306089013815 0.5803961157798767
83 0.02916295826435089 0.05 0.0011103919241577387 0.5804125070571899
84 0.028641823679208755 0.05 0.001071061589755118 0.5804188847541809
85 0.02813335508108139 0.05 0.0010333708487451077 0.5804363489151001
86 0.0276398416608572 0.05 0.0009974341373890638 0.5804502964019775
87 0.0271551925688982 0.05 0.0009627618710510433 0.5804482102394104
88 0.026682330295443535 0.05 0.0009295241325162351 0.5804670453071594
89 0.02622246742248535 0.05 0.0008977599791251123 0.5804697275161743
90 0.025770192965865135 0.05 0.0008670587558299303 0.5804609060287476
91 0.025335105136036873 0.05 0.000838027975987643 0.5804742574691772
92 0.024904845282435417 0.05 0.0008098056423477829 0.580478310585022
93 0.024485720321536064 0.05 0.0007827785448171198 0.5804896950721741
94 0.024077042937278748 0.05 0.0007568667642772198 0.5804879665374756
95 0.02367725782096386 0.05 0.0007319407304748893 0.5804771184921265
96 0.023284312337636948 0.05 0.000707847997546196 0.5804843306541443
97 0.02290329895913601 0.05 0.000684871687553823 0.5804910659790039
98 0.022529250010848045 0.05 0.0006626842077821493 0.5804710984230042
99 0.02216518297791481 0.05 0.000641439575701952 0.5804723501205444

 10%|███████████████████████████████████▊                                                                                                                                                                                                                                                                                                                                  | 1/10 [00:41<06:10, 41.17s/it]
0, 0.1123598963022232
1, 0.1123598963022232
2, 0.10478778183460236
3, 0.09046943485736847
4, 0.07124535739421844
5, 0.05020023137331009
6, 0.0314694307744503
7, 0.02033023163676262
8, 0.014868423342704773
9, 0.012927450239658356
10, 0.012790132313966751
11, 0.013342609629034996
12, 0.013981926254928112
13, 0.014439299702644348
14, 0.01462745200842619
15, 0.01455587800592184
16, 0.01427016593515873
17, 0.013828113675117493
18, 0.013284122571349144
19, 0.012678785249590874
20, 0.012041565030813217
21, 0.011393554508686066
22, 0.010749041102826595
23, 0.010116091929376125
24, 0.009504218585789204
25, 0.008919387124478817
26, 0.008368514478206635
27, 0.007856739684939384
28, 0.007387845776975155
29, 0.006962740793824196
30, 0.006581664085388184
31, 0.006242082919925451
32, 0.0059390319511294365
33, 0.005667657591402531
34, 0.005423232913017273
35, 0.00520031712949276
36, 0.004994844552129507
37, 0.004803324118256569
38, 0.004623563960194588
39, 0.004454330541193485
40, 0.004294767044484615
41, 0.0041441707871854305
42, 0.004002157598733902
43, 0.0038685647305101156
44, 0.0037434862460941076
45, 0.0036268867552280426
46, 0.0035187839530408382
47, 0.003418773179873824
48, 0.0033263969235122204
49, 0.0032414249144494534
50, 0.003163530258461833
51, 0.003092097584158182
52, 0.003026612801477313
53, 0.0029664624016731977
54, 0.0029112007468938828
55, 0.0028602767270058393
56, 0.002813188824802637
57, 0.002769511193037033
58, 0.0027289087884128094
59, 0.002691106405109167
60, 0.002655901713296771
61, 0.002623053966090083
62, 0.002592426724731922
63, 0.002563876798376441
64, 0.0025372058153152466
65, 0.0025123250670731068
66, 0.002489173784852028
67, 0.002467529848217964
68, 0.0024474146775901318
69, 0.0024286636617034674
70, 0.002411268185824156
71, 0.002395141404122114
72, 0.002380169928073883
73, 0.002366346074268222
74, 0.0023535960353910923
75, 0.0023418639320880175
76, 0.002331054536625743
77, 0.0023211510851979256
78, 0.002312145894393325
79, 0.002303836867213249
80, 0.0022963262163102627
81, 0.0022895464207977057
82, 0.002283439738675952
83, 0.0022779875434935093
84, 0.0022730804048478603
85, 0.002268719021230936
86, 0.00226493738591671
87, 0.0022616093046963215
88, 0.0022587559651583433
89, 0.0022563161328434944
90, 0.0022542173974215984
91, 0.002252521924674511
92, 0.0022511533461511135
93, 0.002250051824375987
94, 0.0022492024581879377
95, 0.0022485912777483463
96, 0.002248148899525404
97, 0.0022478378377854824
98, 0.0022476976737380028
99, 0.0022476091980934143
0 2.717365026473999 0.05 8.139711380004883 0.8106985092163086
1 2.555790901184082 0.05 7.200517177581787 0.7657244205474854
2 2.38455867767334 0.05 6.268001556396484 0.7249302268028259
3 2.190725088119507 0.05 5.290404319763184 0.6926276683807373
4 1.943763256072998 0.05 4.164854049682617 0.6777396202087402
5 1.5790917873382568 0.05 2.7487032413482666 0.705435037612915
6 1.176596760749817 0.05 1.5260487794876099 0.7572920322418213
7 0.8704689145088196 0.05 0.8352560997009277 0.7775250673294067
8 0.7087969779968262 0.05 0.553804874420166 0.7666603326797485
9 0.5970397591590881 0.05 0.3929339647293091 0.7520242929458618
10 0.5068624019622803 0.05 0.2831999659538269 0.7369125485420227
11 0.4346519410610199 0.05 0.20825543999671936 0.7239758968353271
12 0.38180553913116455 0.05 0.1606932133436203 0.7128250002861023
13 0.3411415219306946 0.05 0.12828688323497772 0.7042309641838074
14 0.30844739079475403 0.05 0.10487580299377441 0.6975399255752563
15 0.2815166413784027 0.05 0.08736172318458557 0.6922891139984131
16 0.2589610517024994 0.05 0.07392340153455734 0.6881363987922668
17 0.23979420959949493 0.05 0.06338557600975037 0.6848630905151367
18 0.223313108086586 0.05 0.054972000420093536 0.6822881698608398
19 0.20899862051010132 0.05 0.048150401562452316 0.6802694797515869
20 0.1964966058731079 0.05 0.04256211221218109 0.6786340475082397
21 0.18550743162631989 0.05 0.037934619933366776 0.6773192882537842
22 0.17579302191734314 0.05 0.034065622836351395 0.6762181520462036
23 0.16714514791965485 0.05 0.03079644963145256 0.6752855777740479
24 0.15939584374427795 0.05 0.028007028624415398 0.6744712591171265
25 0.1524023413658142 0.05 0.02560332417488098 0.6737799048423767
26 0.14605265855789185 0.05 0.02351429872214794 0.6731972694396973
27 0.14024494588375092 0.05 0.02168140932917595 0.6726856231689453
28 0.13489407300949097 0.05 0.020058516412973404 0.6722347736358643
29 0.12995348870754242 0.05 0.01861611194908619 0.6718422174453735
30 0.1253701150417328 0.05 0.01732611283659935 0.6715078949928284
31 0.12108635902404785 0.05 0.016162315383553505 0.6711979508399963
32 0.11708074063062668 0.05 0.015110678970813751 0.6709281206130981
33 0.11332064121961594 0.05 0.014155691489577293 0.6706787347793579
34 0.10978357493877411 0.05 0.01328580267727375 0.670464038848877
35 0.10644286870956421 0.05 0.012489533051848412 0.6702382564544678
36 0.10329320281744003 0.05 0.011761333793401718 0.6700590252876282
37 0.10030683875083923 0.05 0.011091087013483047 0.6698875427246094
38 0.09747552126646042 0.05 0.010473798960447311 0.6697299480438232
39 0.0947815477848053 0.05 0.009902860037982464 0.6695764064788818
40 0.09223078936338425 0.05 0.00937702227383852 0.6694306135177612
41 0.08980052173137665 0.05 0.008889365941286087 0.6692848205566406
42 0.08748693019151688 0.05 0.008437221869826317 0.6691465973854065
43 0.08527573943138123 0.05 0.008016116917133331 0.6690351963043213
44 0.08316893875598907 0.05 0.007624921388924122 0.6688917875289917
45 0.08115100115537643 0.05 0.007259401958435774 0.6687729358673096
46 0.07922481000423431 0.05 0.006918874569237232 0.6686609983444214
47 0.07737290114164352 0.05 0.006599193438887596 0.6685303449630737
48 0.07560248672962189 0.05 0.006300648674368858 0.6684129238128662
49 0.0738990306854248 0.05 0.0060199168510735035 0.6683065891265869
50 0.07226838916540146 0.05 0.005757180508226156 0.6681880950927734
51 0.07070344686508179 0.05 0.005510541144758463 0.6680607795715332
52 0.06918460875749588 0.05 0.005276331678032875 0.6679465174674988
53 0.0677352249622345 0.05 0.005057573318481445 0.6678183078765869
54 0.06632255017757416 0.05 0.004848813638091087 0.6677173376083374
55 0.0649745836853981 0.05 0.004653718322515488 0.6675999760627747
56 0.06366536021232605 0.05 0.00446806475520134 0.6674667596817017
57 0.06240491569042206 0.05 0.004292899277061224 0.6673564910888672
58 0.06118478998541832 0.05 0.004126672632992268 0.6672567129135132
59 0.06000420078635216 0.05 0.003968956880271435 0.6671216487884521
60 0.058863334357738495 0.05 0.0038194674998521805 0.6670053005218506
61 0.05775921419262886 0.05 0.0036775250919163227 0.6668859720230103
62 0.0566849559545517 0.05 0.003542001126334071 0.666780948638916
63 0.05564792826771736 0.05 0.003413587808609009 0.6666508913040161
64 0.05464187264442444 0.05 0.0032912753522396088 0.666545033454895
65 0.05365762487053871 0.05 0.0031737741082906723 0.6664183139801025
66 0.05271115526556969 0.05 0.00306279631331563 0.6662970781326294
67 0.051788266748189926 0.05 0.002956485841423273 0.666192352771759
68 0.05089213699102402 0.05 0.002855055034160614 0.6660653352737427
69 0.05002377927303314 0.05 0.0027584561612457037 0.6659567952156067
70 0.049171023070812225 0.05 0.0026652109809219837 0.6658416986465454
71 0.04835018143057823 0.05 0.0025769697967916727 0.6657174825668335
72 0.047555625438690186 0.05 0.002492968924343586 0.6656036376953125
73 0.04676574841141701 0.05 0.0024108425714075565 0.665501594543457
74 0.04600489139556885 0.05 0.0023330342955887318 0.6653753519058228
75 0.04526630789041519 0.05 0.00225872453302145 0.6652648448944092
76 0.04454838111996651 0.05 0.0021876452956348658 0.6651497483253479
77 0.04383120685815811 0.05 0.002117775846272707 0.6650474071502686
78 0.043150659650564194 0.05 0.0020525227300822735 0.6649389266967773
79 0.04247138649225235 0.05 0.0019884100183844566 0.6648317575454712
80 0.04182404279708862 0.05 0.0019282579887658358 0.6647183895111084
81 0.041182972490787506 0.05 0.0018695991020649672 0.664607048034668
82 0.04055584967136383 0.05 0.001813093083910644 0.6645004153251648
83 0.039952583611011505 0.05 0.001759554841555655 0.6643959283828735
84 0.03935256227850914 0.05 0.0017071005422621965 0.6642947793006897
85 0.038766760379076004 0.05 0.0016566549893468618 0.6641800403594971
86 0.03819511458277702 0.05 0.0016081579960882664 0.6640788316726685
87 0.03764400631189346 0.05 0.0015620853519067168 0.6639573574066162
88 0.03709235042333603 0.05 0.0015166375087574124 0.6638646125793457
89 0.036560043692588806 0.05 0.0014734197175130248 0.6637712121009827
90 0.03603512793779373 0.05 0.0014314136933535337 0.6636748313903809
91 0.035529084503650665 0.05 0.0013914932496845722 0.663568913936615
92 0.035024430602788925 0.05 0.0013522445224225521 0.6634742021560669
93 0.03453945368528366 0.05 0.0013150552986189723 0.6633546352386475
94 0.034057680517435074 0.05 0.0012786249862983823 0.6632593274116516
95 0.033587370067834854 0.05 0.0012435553362593055 0.6631718873977661
96 0.033124301582574844 0.05 0.001209501875564456 0.6630709171295166
97 0.03268103301525116 0.05 0.0011773474980145693 0.6629866361618042
98 0.032226789742708206 0.05 0.0011448462028056383 0.6628803014755249
99 0.03179437294602394 0.05 0.001114329439587891 0.6628022193908691
inversion time : 39.869810819625854

 20%|███████████████████████████████████████████████████████████████████████▌                                                                                                                                                                                                                                                                                              | 2/10 [01:22<05:28, 41.00s/it]
1, 0.09775816649198532
2, 0.09261517226696014
3, 0.08272560685873032
4, 0.06901417672634125
5, 0.0531066469848156
6, 0.037517812103033066
7, 0.02679770439863205
8, 0.020149996504187584
9, 0.016250845044851303
