
  0%|                                                                                                                                                                                                                                                                                                           | 0/10 [00:00<?, ?it/s]
0, 0.1364392638206482
1, 0.1364392638206482
2, 0.12979233264923096
3, 0.11694817990064621
4, 0.09893618524074554
5, 0.07756033539772034
6, 0.055496104061603546
7, 0.03882559761404991
8, 0.027222391217947006
9, 0.019793188199400902
10, 0.015392976813018322
11, 0.01293947547674179
12, 0.011598242446780205
13, 0.010818388313055038
14, 0.010276644490659237
15, 0.009808272123336792
16, 0.009342368692159653
17, 0.008861804381012917
18, 0.008372663520276546
19, 0.007891876623034477
20, 0.007438264321535826
21, 0.007025727536529303
22, 0.006664074957370758
23, 0.006358548067510128
24, 0.0061105466447770596
25, 0.005919392220675945
26, 0.005779830273240805
27, 0.0056863222271203995
28, 0.005631574429571629
29, 0.005606293212622404
0 2.5123114585876465 0.05 7.140231132507324
1 2.351205348968506 0.05 6.253834247589111
2 2.182324171066284 0.05 5.387704849243164
3 1.9794561862945557 0.05 4.432584762573242
4 1.6754231452941895 0.05 3.175516366958618
5 1.296462893486023 0.05 1.9014525413513184
6 0.9130887389183044 0.05 0.943172812461853
7 0.6585536003112793 0.05 0.4906226396560669
8 0.5219343304634094 0.05 0.308174729347229
9 0.42932331562042236 0.05 0.208513543009758
10 0.3648090660572052 0.05 0.15055546164512634
11 0.31713250279426575 0.05 0.11377499252557755
12 0.27936604619026184 0.05 0.08829019963741302
13 0.2502925992012024 0.05 0.0708698183298111
14 0.22706155478954315 0.05 0.058324702084064484
15 0.20764602720737457 0.05 0.048776719719171524
16 0.1918414980173111 0.05 0.0416342169046402
17 0.17894460260868073 0.05 0.036224499344825745
18 0.1681496948003769 0.05 0.0319858193397522
19 0.15889886021614075 0.05 0.028563203290104866
20 0.15084195137023926 0.05 0.025740060955286026
21 0.14370615780353546 0.05 0.02336231991648674
22 0.13734939694404602 0.05 0.021341197192668915
23 0.1316165030002594 0.05 0.01959683746099472
24 0.1264125257730484 0.05 0.018077798187732697
25 0.12164917588233948 0.05 0.016741087660193443
26 0.11727844178676605 0.05 0.015559716150164604
27 0.11325068026781082 0.05 0.01450931467115879
28 0.1094968318939209 0.05 0.013563394546508789
29 0.1060003787279129 0.05 0.012711012735962868
30 0.10273168236017227 0.05 0.011939169839024544
31 0.09964925795793533 0.05 0.011233456432819366
32 0.0967494323849678 0.05 0.010589174926280975
33 0.09400422871112823 0.05 0.009996777400374413
34 0.0913987085223198 0.05 0.009450294077396393
35 0.08891132473945618 0.05 0.00894292164593935
36 0.08655111491680145 0.05 0.008474431931972504
37 0.08429596573114395 0.05 0.00803857110440731
38 0.08214055746793747 0.05 0.007632741238921881
39 0.08007544279098511 0.05 0.007253773510456085
40 0.07809198647737503 0.05 0.006898874416947365
41 0.07619466632604599 0.05 0.006567715667188168
42 0.07436401396989822 0.05 0.00625591678544879
43 0.07260941714048386 0.05 0.005964186042547226
44 0.07091618329286575 0.05 0.005689263343811035
45 0.06928591430187225 0.05 0.005430692806839943
46 0.06771132349967957 0.05 0.005186661146581173
47 0.06620306521654129 0.05 0.004958171397447586
48 0.06473656743764877 0.05 0.004740942269563675
49 0.06332200020551682 0.05 0.004536015912890434
50 0.06195525825023651 0.05 0.004342317581176758
51 0.06064178794622421 0.05 0.0041601527482271194
52 0.05936397239565849 0.05 0.003986678086221218
53 0.058126676827669144 0.05 0.003822225145995617
54 0.05693362280726433 0.05 0.0036669322289526463
55 0.055777840316295624 0.05 0.003519562305882573
56 0.0546557791531086 0.05 0.003379383124411106
57 0.05356672778725624 0.05 0.0032460521906614304
58 0.052510011941194534 0.05 0.003119245171546936
59 0.051490478217601776 0.05 0.002999294549226761
60 0.05049640312790871 0.05 0.0028846038039773703
61 0.04952695220708847 0.05 0.002774907508864999
62 0.04858668893575668 0.05 0.002670545130968094
63 0.04766816645860672 0.05 0.0025705271400511265
64 0.046779241412878036 0.05 0.0024755496997386217
65 0.04591687396168709 0.05 0.0023851182777434587
66 0.04507231339812279 0.05 0.0022981849033385515
67 0.04425119608640671 0.05 0.0022152119781821966
68 0.043451473116874695 0.05 0.0021358674857765436
69 0.04267413541674614 0.05 0.0020601307041943073
70 0.041911348700523376 0.05 0.001987140392884612
71 0.04117002710700035 0.05 0.0019174658227711916
72 0.04044497758150101 0.05 0.0018505228217691183
73 0.03974397853016853 0.05 0.0017869314178824425
74 0.03905436024069786 0.05 0.0017254578415304422
75 0.03838082030415535 0.05 0.001666455646045506
76 0.03772393614053726 0.05 0.0016099016647785902
77 0.037085555493831635 0.05 0.0015558754093945026
78 0.03645865619182587 0.05 0.001503718551248312
79 0.035847537219524384 0.05 0.0014537305105477571
80 0.0352468304336071 0.05 0.001405417686328292
81 0.03466258943080902 0.05 0.0013592123286798596
82 0.034090861678123474 0.05 0.001314744120463729
83 0.03353285789489746 0.05 0.0012720564845949411
84 0.03298955783247948 0.05 0.0012311708414927125
85 0.03245053440332413 0.05 0.001191266579553485
86 0.031930841505527496 0.05 0.0011534161167219281
87 0.03142233192920685 0.05 0.001116971718147397
88 0.03091569058597088 0.05 0.0010812426917254925
89 0.03042934089899063 0.05 0.0010474910959601402
90 0.02994726039469242 0.05 0.00101456418633461
91 0.029476771131157875 0.05 0.0009829356567934155
92 0.029016293585300446 0.05 0.0009524651686660945
93 0.028565311804413795 0.05 0.0009230881696566939
94 0.028128089383244514 0.05 0.0008950468036346138
95 0.027690336108207703 0.05 0.0008674045675434172
96 0.027268076315522194 0.05 0.0008411516901105642
97 0.026852602139115334 0.05 0.000815714243799448
98 0.026446355506777763 0.05 0.0007912194123491645
99 0.02605125866830349 0.05 0.0007677551475353539
100 0.025657933205366135 0.05 0.0007447467651218176
101 0.025276249274611473 0.05 0.0007227539899758995
102 0.024900425225496292 0.05 0.0007014210568740964
103 0.024528540670871735 0.05 0.0006806263118050992
104 0.02416914887726307 0.05 0.0006608272669836879
105 0.023812148720026016 0.05 0.0006414494127966464
106 0.023467134684324265 0.05 0.0006229961873032153
107 0.023125192150473595 0.05 0.0006049730582162738
108 0.022792162373661995 0.05 0.0005876737413927913
109 0.022460270673036575 0.05 0.0005706833908334374
110 0.022143669426441193 0.05 0.0005547079490497708
111 0.021826110780239105 0.05 0.0005389121361076832
112 0.021519072353839874 0.05 0.0005238564917817712
113 0.02121022343635559 0.05 0.0005089272744953632
114 0.020913638174533844 0.05 0.000494793988764286
115 0.02062087692320347 0.05 0.0004810381797142327
116 0.0203310027718544 0.05 0.0004676090320572257
117 0.020048364996910095 0.05 0.00045469816541299224
118 0.019768020138144493 0.05 0.0004420705954544246
119 0.01949727162718773 0.05 0.00043004407780244946
120 0.01922784373164177 0.05 0.00041824087384156883
121 0.018969863653182983 0.05 0.0004070930299349129
122 0.018708234652876854 0.05 0.0003959414316341281
123 0.018455641344189644 0.05 0.00038532179314643145
124 0.018203822895884514 0.05 0.0003748784656636417
125 0.01795928366482258 0.05 0.00036487431498244405
126 0.017717814072966576 0.05 0.0003551285481080413
127 0.01748933270573616 0.05 0.0003460284206084907
128 0.01725246198475361 0.05 0.00033671886194497347
129 0.017025530338287354 0.05 0.00032791896956041455
130 0.016797011718153954 0.05 0.0003191753348801285
131 0.016576452180743217 0.05 0.0003108482633251697
132 0.016359759494662285 0.05 0.0003027744241990149
133 0.016145529225468636 0.05 0.00029489665757864714
134 0.01593618281185627 0.05 0.00028729886980727315
135 0.01573176495730877 0.05 0.00027997553115710616
136 0.015526674687862396 0.05 0.0002727232640609145
137 0.01533203199505806 0.05 0.00026592842186801136
138 0.015132087282836437 0.05 0.0002590376534499228
139 0.014937054365873337 0.05 0.00025240337708964944
140 0.014752868562936783 0.05 0.0002462170959915966
141 0.014563333243131638 0.05 0.0002399312797933817
142 0.014382620342075825 0.05 0.00023401371436193585
143 0.014197184704244137 0.05 0.00022801831073593348
144 0.014024842530488968 0.05 0.00022251601330935955
145 0.013849720358848572 0.05 0.00021699376520700753
146 0.01367585826665163 0.05 0.00021157992887310684
147 0.013505743816494942 0.05 0.0002063489519059658
148 0.013337883166968822 0.05 0.00020125148876104504
149 0.013176314532756805 0.05 0.00019640529353637248
150 0.013016429729759693 0.05 0.00019166774291079491
151 0.012858056463301182 0.05 0.00018703201203607023
152 0.012700993567705154 0.05 0.00018249067943543196
153 0.012545298784971237 0.05 0.00017804396338760853
154 0.012398939579725266 0.05 0.00017391394067090005
155 0.012247293256223202 0.05 0.0001696857943898067
156 0.012100385501980782 0.05 0.00016563940152991563
157 0.011954110115766525 0.05 0.0001616589433979243
158 0.011814747005701065 0.05 0.00015791163605172187
159 0.011671915650367737 0.05 0.0001541166566312313
160 0.011533581651747227 0.05 0.00015048515342641622
161 0.01140025444328785 0.05 0.00014702609041705728
162 0.011266827583312988 0.05 0.00014360467321239412
163 0.01113338116556406 0.05 0.00014022307004779577
164 0.011006814427673817 0.05 0.0001370530080748722
165 0.010876531712710857 0.05 0.00013382772158365697
166 0.010760338045656681 0.05 0.00013098365161567926
167 0.010631109587848186 0.05 0.00012785640137735754
168 0.010517493821680546 0.05 0.00012513817637227476
169 0.010389380156993866 0.05 0.0001221081183757633
170 0.010273109190165997 0.05 0.0001193903008243069
171 0.010149851441383362 0.05 0.00011654257832560688
172 0.010038658045232296 0.05 0.00011400310177123174
173 0.009923698380589485 0.05 0.00011140697461087257
174 0.00980733148753643 0.05 0.00010880954505410045
175 0.009700759314000607 0.05 0.00010645762813510373
176 0.00959064718335867 0.05 0.0001040545612340793
177 0.00948368851095438 0.05 0.0001017465692711994
178 0.0093813082203269 0.05 9.956165740732104e-05
179 0.009279647842049599 0.05 9.74155482253991e-05
180 0.009171649813652039 0.05 9.516126738162711e-05
181 0.009072527289390564 0.05 9.311547910328954e-05
182 0.0089717460796237 0.05 9.105823119170964e-05
183 0.00887676514685154 0.05 8.914043428376317e-05
184 0.008778451941907406 0.05 8.717684977455065e-05
185 0.008680922910571098 0.05 8.525051816832274e-05
186 0.00858878530561924 0.05 8.345045353053138e-05
187 0.00849318876862526 0.05 8.16031388239935e-05
188 0.008403661660850048 0.05 7.989183359313756e-05
189 0.008314276114106178 0.05 7.820133760105819e-05
190 0.00822566356509924 0.05 7.65433069318533e-05
191 0.00813774298876524 0.05 7.491577707696706e-05
192 0.008050153031945229 0.05 7.331174856517464e-05
193 0.007964853197336197 0.05 7.17663424438797e-05
194 0.007885321974754333 0.05 7.03402838553302e-05
195 0.0077995616011321545 0.05 6.881856825202703e-05
196 0.00771693279966712 0.05 6.736815703334287e-05
197 0.007635658141225576 0.05 6.595659215236083e-05
198 0.007553131319582462 0.05 6.453856622101739e-05
199 0.007476602215319872 0.05 6.32373703410849e-05

 10%|█████████████████████████████                                                                                                                                                                                                                                                                      | 1/10 [00:26<03:54, 26.10s/it]
0, 0.1123598963022232
1, 0.1123598963022232
2, 0.10478769242763519
3, 0.09046944975852966
4, 0.07124517112970352
5, 0.05020023509860039
6, 0.03146937116980553
7, 0.020359177142381668
8, 0.014924782328307629
9, 0.0129388477653265
10, 0.012658908031880856
11, 0.01299426332116127
12, 0.013388117775321007
13, 0.013614833354949951
14, 0.013617321848869324
15, 0.013421868905425072
16, 0.013080443255603313
17, 0.012647578492760658
18, 0.01217014342546463
19, 0.01168530061841011
20, 0.01121994387358427
21, 0.010791491717100143
22, 0.01041112095117569
23, 0.01008576899766922
24, 0.009817845188081264
25, 0.009608088992536068
26, 0.00945284590125084
27, 0.009347460232675076
28, 0.00928526185452938
29, 0.009255971759557724
0 2.8622915744781494 0.05 7.60212516784668
1 2.6969218254089355 0.05 6.749070644378662
2 2.5246834754943848 0.05 5.914541244506836
3 2.3318240642547607 0.05 5.045436382293701
4 2.092317819595337 0.05 4.062211990356445
5 1.766093373298645 0.05 2.894239902496338
6 1.3688279390335083 0.05 1.7386207580566406
7 1.012650966644287 0.05 0.9515392780303955
8 0.8032164573669434 0.05 0.5986492037773132
9 0.6810373067855835 0.05 0.43037694692611694
10 0.5817161202430725 0.05 0.3139997720718384
11 0.49499085545539856 0.05 0.22735345363616943
12 0.4288836717605591 0.05 0.1706814169883728
13 0.3792066276073456 0.05 0.13343170285224915
14 0.34007832407951355 0.05 0.10731616616249084
15 0.3084884583950043 0.05 0.08830494433641434
16 0.2825280725955963 0.05 0.07406796514987946
17 0.26087868213653564 0.05 0.06315159797668457
18 0.24259977042675018 0.05 0.05461198836565018
19 0.22693532705307007 0.05 0.04778717830777168
20 0.2133265733718872 0.05 0.042227666825056076
21 0.2013421207666397 0.05 0.03761633485555649
22 0.19070373475551605 0.05 0.03374625742435455
23 0.1811876744031906 0.05 0.03046242892742157
24 0.1726207286119461 0.05 0.02764987200498581
25 0.16487568616867065 0.05 0.02522437646985054
26 0.15783363580703735 0.05 0.02311566099524498
27 0.15140332281589508 0.05 0.021270517259836197
28 0.1455216109752655 0.05 0.019649984315037727
29 0.14009763300418854 0.05 0.018212467432022095
30 0.13509723544120789 0.05 0.01693558320403099
31 0.130448117852211 0.05 0.015790022909641266
32 0.1261294186115265 0.05 0.01476182322949171
33 0.12210403382778168 0.05 0.013834620825946331
34 0.11832968145608902 0.05 0.012992555275559425
35 0.1147899180650711 0.05 0.01222685445100069
36 0.11145986616611481 0.05 0.011527742259204388
37 0.10832234472036362 0.05 0.010887879878282547
38 0.10535873472690582 0.05 0.010300262831151485
39 0.10254346579313278 0.05 0.009757154621183872
40 0.09986594319343567 0.05 0.009254267439246178
41 0.09733044356107712 0.05 0.008790317922830582
42 0.0949118509888649 0.05 0.008358879014849663
43 0.09259586781263351 0.05 0.007955919951200485
44 0.09039386361837387 0.05 0.007582023274153471
45 0.0882805734872818 0.05 0.0072316513396799564
46 0.08625499904155731 0.05 0.006903603207319975
47 0.08430715650320053 0.05 0.006595323793590069
48 0.08245065808296204 0.05 0.006308055017143488
49 0.08065039664506912 0.05 0.006035597063601017
50 0.07892507314682007 0.05 0.005780124571174383
51 0.07726546376943588 0.05 0.005539595149457455
52 0.075659841299057 0.05 0.005311754997819662
53 0.07410838454961777 0.05 0.005096145905554295
54 0.07260887324810028 0.05 0.004892001859843731
55 0.0711510181427002 0.05 0.004697528667747974
56 0.06975308805704117 0.05 0.004514753818511963
57 0.06838354468345642 0.05 0.004339207895100117
58 0.0670732706785202 0.05 0.004174516536295414
59 0.06578977406024933 0.05 0.004016279708594084
60 0.06454113125801086 0.05 0.003865274600684643
61 0.06333454698324203 0.05 0.003722104709595442
62 0.06216638535261154 0.05 0.0035860673524439335
63 0.06102323532104492 0.05 0.003455394646152854
64 0.05991503223776817 0.05 0.0033310316503047943
65 0.05883289873600006 0.05 0.003211794188246131
66 0.05778917670249939 0.05 0.0030988475773483515
67 0.05676649138331413 0.05 0.002990138251334429
68 0.0557689443230629 0.05 0.0028859712183475494
69 0.054803941398859024 0.05 0.0027869604527950287
70 0.053860411047935486 0.05 0.0026918232906609774
71 0.05294261872768402 0.05 0.0026008663699030876
72 0.05205254629254341 0.05 0.0025141495279967785
73 0.051169753074645996 0.05 0.002429594984278083
74 0.050317712128162384 0.05 0.00234935712069273
75 0.04948565736413002 0.05 0.0022723013535141945
76 0.0486711747944355 0.05 0.002198117319494486
77 0.04788118228316307 0.05 0.0021273400634527206
78 0.04710814356803894 0.05 0.0020592031069099903
79 0.04634249210357666 0.05 0.0019928105175495148
80 0.045610010623931885 0.05 0.001930312137119472
81 0.04488854855298996 0.05 0.0018697273917496204
82 0.04417683184146881 0.05 0.0018109078519046307
83 0.04348877817392349 0.05 0.0017549374606460333
84 0.042809490114450455 0.05 0.0017005419358611107
85 0.0421593151986599 0.05 0.0016492794966325164
86 0.04151301831007004 0.05 0.0015991006512194872
87 0.040874604135751724 0.05 0.0015502950409427285
88 0.040251970291137695 0.05 0.0015034240204840899
89 0.039651740342378616 0.05 0.001458920887671411
90 0.03906071186065674 0.05 0.0014157530386000872
91 0.038483574986457825 0.05 0.0013742255978286266
92 0.037911005318164825 0.05 0.0013336376287043095
93 0.03735417127609253 0.05 0.0012947485083714128
94 0.036812275648117065 0.05 0.0012574552092701197
95 0.03628145158290863 0.05 0.0012214521411806345
96 0.03575529530644417 0.05 0.001186282024718821
97 0.03524620458483696 0.05 0.0011527412571012974
98 0.03474268689751625 0.05 0.0011200412409380078
99 0.03424953296780586 0.05 0.001088470220565796
100 0.03376961499452591 0.05 0.0010581796523183584
101 0.03329046443104744 0.05 0.0010283641749992967
102 0.03283153474330902 0.05 0.0010002062190324068
103 0.03236990422010422 0.05 0.0009722770191729069
104 0.03193638473749161 0.05 0.0009464087197557092
105 0.03148825094103813 0.05 0.0009200350032187998
106 0.03106244094669819 0.05 0.0008953202050179243
107 0.030637798830866814 0.05 0.0008710083202458918
108 0.030232036486268044 0.05 0.0008480901597067714
109 0.029818665236234665 0.05 0.0008250563405454159
110 0.029420992359519005 0.05 0.000803196569904685
111 0.029038308188319206 0.05 0.0007824377971701324
112 0.02865275926887989 0.05 0.0007617984083481133
113 0.02827589027583599 0.05 0.0007418905152007937
114 0.027904966846108437 0.05 0.000722553813830018
115 0.027543727308511734 0.05 0.0007039675256237388
116 0.02718781679868698 0.05 0.0006858921842649579
117 0.026838207617402077 0.05 0.000668365799356252
118 0.026496028527617455 0.05 0.0006514314445666969
119 0.026162220165133476 0.05 0.0006351209594868124
120 0.025820063427090645 0.05 0.0006186169339343905
121 0.025505254045128822 0.05 0.0006036240374669433
122 0.025182772427797318 0.05 0.0005884563433937728
123 0.024864939972758293 0.05 0.0005736962775699794
124 0.024557530879974365 0.05 0.0005595985567197204
125 0.024253591895103455 0.05 0.0005458323867060244
126 0.02395682781934738 0.05 0.0005325567326508462
127 0.023667190223932266 0.05 0.0005197573336772621
128 0.023374106734991074 0.05 0.0005069641629233956
129 0.0230886097997427 0.05 0.000494655454531312
130 0.02281327173113823 0.05 0.0004829278914257884
131 0.022545291110873222 0.05 0.0004716490220744163
132 0.022274011746048927 0.05 0.00046036686399020255
133 0.022003984078764915 0.05 0.0004492724547162652
134 0.02174612134695053 0.05 0.0004388042725622654
135 0.021488767117261887 0.05 0.0004284796887077391
136 0.021237634122371674 0.05 0.0004185231518931687
137 0.020988311618566513 0.05 0.00040875416016206145
138 0.02074536867439747 0.05 0.00039934617234393954
139 0.020506134256720543 0.05 0.000390188826713711
140 0.020267894491553307 0.05 0.00038117505027912557
141 0.020038804039359093 0.05 0.0003726067952811718
142 0.01980905793607235 0.05 0.000364111881935969
143 0.019577857106924057 0.05 0.00035566205042414367
144 0.019357318058609962 0.05 0.00034769432386383414
145 0.019140131771564484 0.05 0.000339935882948339
146 0.01892920769751072 0.05 0.0003324850113131106
147 0.018712395802140236 0.05 0.0003249121946282685
148 0.01850857399404049 0.05 0.00031787261832505465
149 0.018302669748663902 0.05 0.00031083941576071084
150 0.018104001879692078 0.05 0.0003041279560420662
151 0.017902866005897522 0.05 0.0002974077360704541
152 0.01770884171128273 0.05 0.00029099630773998797
153 0.017512094229459763 0.05 0.00028456622385419905
154 0.017321301624178886 0.05 0.0002783993841148913
155 0.017132975161075592 0.05 0.00027237850008532405
156 0.016948789358139038 0.05 0.00026655365945771337
