
  0%|                                                                                                                                                                                                                                                                                                                                                                              | 0/10 [00:00<?, ?it/s]
0, 0.1364392638206482
1, 0.1364392638206482
2, 0.12979215383529663
3, 0.11694814264774323
4, 0.0989360362291336
5, 0.07756029069423676
6, 0.05549614876508713
7, 0.03879794105887413
8, 0.02712930738925934
9, 0.019633224233984947
10, 0.015203692018985748
11, 0.012774924747645855
12, 0.011503875255584717
13, 0.010817325673997402
14, 0.010367723181843758
15, 0.009970055893063545
16, 0.009539872407913208
17, 0.009050345048308372
18, 0.008509007282555103
19, 0.007937363348901272
20, 0.007361245341598988
21, 0.0068017239682376385
22, 0.006274456158280373
23, 0.005790314637124538
24, 0.005354370456188917
25, 0.0049688625149428844
26, 0.0046327924355864525
27, 0.004343533888459206
28, 0.0040974123403429985
29, 0.0038896685000509024
30, 0.0037167086265981197
31, 0.003574258415028453
32, 0.003458965104073286
33, 0.0033678095787763596
34, 0.0032969070598483086
35, 0.0032445441465824842
36, 0.003207638394087553
37, 0.003183685941621661
38, 0.003170028328895569
39, 0.0031638741493225098
0 2.4825642108917236 0.05 7.451688289642334
1 2.3167173862457275 0.05 6.489329814910889
2 2.14072585105896 0.05 5.540843486785889
3 1.926053524017334 0.05 4.485288619995117
4 1.6242806911468506 0.05 3.1898908615112305
5 1.2640302181243896 0.05 1.9318289756774902
6 0.8884544968605042 0.05 0.9543861746788025
7 0.6221266984939575 0.05 0.4679628610610962
8 0.4895375072956085 0.05 0.28975147008895874
9 0.40327349305152893 0.05 0.19663149118423462
10 0.34794342517852783 0.05 0.146376371383667
11 0.30618932843208313 0.05 0.11335320770740509
12 0.2715390920639038 0.05 0.08914940059185028
13 0.24425877630710602 0.05 0.07213632762432098
14 0.2224011868238449 0.05 0.05980367958545685
15 0.20452040433883667 0.05 0.050573959946632385
16 0.18973751366138458 0.05 0.04352714121341705
17 0.17727209627628326 0.05 0.03799569606781006
18 0.16655313968658447 0.05 0.03353971242904663
19 0.1572176069021225 0.05 0.029885193333029747
20 0.1489851325750351 0.05 0.026837345212697983
21 0.14166228473186493 0.05 0.024263987317681313
22 0.13514019548892975 0.05 0.02208120748400688
23 0.1292639523744583 0.05 0.02020266279578209
24 0.12393979728221893 0.05 0.01857270672917366
25 0.11908186972141266 0.05 0.017145296558737755
26 0.11462078988552094 0.05 0.015884755179286003
27 0.11051101982593536 0.05 0.014766069129109383
28 0.10670893639326096 0.05 0.013767506927251816
29 0.10316747426986694 0.05 0.012868836522102356
30 0.09986113011837006 0.05 0.01205720566213131
31 0.09676895290613174 0.05 0.01132206991314888
32 0.09384852647781372 0.05 0.010648995637893677
33 0.09109877794981003 0.05 0.01003410667181015
34 0.08849560469388962 0.05 0.009468847885727882
35 0.08602884411811829 0.05 0.008948328904807568
36 0.08368771523237228 0.05 0.00846792757511139
37 0.08144566416740417 0.05 0.008020281791687012
38 0.07931988686323166 0.05 0.0076070791110396385
39 0.0772823616862297 0.05 0.007221284322440624
40 0.07533000409603119 0.05 0.0068610357120633125
41 0.0734635666012764 0.05 0.0065252576023340225
42 0.07166754454374313 0.05 0.006210102699697018
43 0.06994470208883286 0.05 0.00591511745005846
44 0.0682872086763382 0.05 0.005638095084577799
45 0.06668833643198013 0.05 0.0053771669045090675
46 0.06514643877744675 0.05 0.005131390877068043
47 0.06365890800952911 0.05 0.0048997290432453156
48 0.062219392508268356 0.05 0.004680640064179897
49 0.06083136796951294 0.05 0.0044741323217749596
50 0.05948484688997269 0.05 0.004278251901268959
51 0.05818556249141693 0.05 0.004093400202691555
52 0.05692749843001366 0.05 0.003918301779776812
53 0.05570521950721741 0.05 0.0037518502213060856
54 0.05452238395810127 0.05 0.0035942094400525093
55 0.05337253957986832 0.05 0.003444208763539791
56 0.052254315465688705 0.05 0.0033013992942869663
57 0.051177170127630234 0.05 0.0031666953582316637
58 0.05012191832065582 0.05 0.0030374496709555387
59 0.049104101955890656 0.05 0.0029153404757380486
60 0.04811473190784454 0.05 0.002799044828861952
61 0.04714310169219971 0.05 0.002687138505280018
62 0.04620736464858055 0.05 0.0025815239641815424
63 0.0452997051179409 0.05 0.002481101080775261
64 0.04441186413168907 0.05 0.002384798601269722
65 0.04354793578386307 0.05 0.002292919671162963
66 0.042707476764917374 0.05 0.002205268945544958
67 0.041886910796165466 0.05 0.002121340250596404
68 0.04108726978302002 0.05 0.002041118685156107
69 0.040310971438884735 0.05 0.0019647181034088135
70 0.039557334035634995 0.05 0.0018919415306299925
71 0.03881749510765076 0.05 0.0018218334298580885
72 0.03809860348701477 0.05 0.00175497867166996
73 0.03739748150110245 0.05 0.00169097981415689
74 0.036715198308229446 0.05 0.001629841746762395
75 0.036049600690603256 0.05 0.0015712836757302284
76 0.03539571911096573 0.05 0.0015147998929023743
77 0.03476189821958542 0.05 0.00146103510633111
78 0.03414035961031914 0.05 0.0014092560159042478
79 0.03353256359696388 0.05 0.001359524903818965
80 0.03294571489095688 0.05 0.0013123557437211275
81 0.03236604854464531 0.05 0.0012665812391787767
82 0.031804028898477554 0.05 0.0012229762505739927
83 0.03125360608100891 0.05 0.001181011088192463
84 0.030714206397533417 0.05 0.0011405972763895988
85 0.03018582984805107 0.05 0.0011016912758350372
86 0.02967461384832859 0.05 0.0010646916925907135
87 0.029171019792556763 0.05 0.0010288613848388195
88 0.02867656946182251 0.05 0.0009942783508449793
89 0.028195787221193314 0.05 0.0009612184949219227
90 0.02772434800863266 0.05 0.0009293437469750643
91 0.027269210666418076 0.05 0.0008990809437818825
92 0.0268139336258173 0.05 0.0008693102281540632
93 0.026374131441116333 0.05 0.0008410271257162094
94 0.02594207227230072 0.05 0.0008136976393871009
95 0.02552197128534317 0.05 0.0007875572191551328
96 0.02511005476117134 0.05 0.0007623404962942004
97 0.024703331291675568 0.05 0.000737844267860055
98 0.024309098720550537 0.05 0.0007144821574911475
99 0.02391996793448925 0.05 0.0006917910650372505
tuning, 0, 0.003173166885972023
tuning, 1, 0.0023600272834300995
tuning, 2, 0.0018823279533535242
tuning, 3, 0.0014858832582831383
tuning, 4, 0.0013079179916530848
tuning, 5, 0.0013036259915679693
tuning, 6, 0.0012641912326216698
tuning, 7, 0.0011340598575770855
tuning, 8, 0.0010033007711172104
tuning, 9, 0.0009382786229252815
tuning, 10, 0.0009265166590921581
tuning, 11, 0.0009156743763014674
tuning, 12, 0.0008800594951026142
tuning, 13, 0.0008304165676236153
tuning, 14, 0.0007862606435082853
tuning, 15, 0.0007544869440607727
tuning, 16, 0.0007323994068428874

 10%|███████████████████████████████████▊                                                                                                                                                                                                                                                                                                                                  | 1/10 [00:30<04:30, 30.01s/it]
tuning, 18, 0.0006924777990207076
tuning, 19, 0.000669781758915633
inversion time : 28.559261083602905
0, 0.1123598963022232
1, 0.1123598963022232
2, 0.10478755086660385
3, 0.0904693454504013
4, 0.07124532759189606
5, 0.050200205296278
6, 0.031469445675611496
7, 0.020343966782093048
8, 0.014894886873662472
9, 0.01293191872537136
10, 0.012725269421935081
11, 0.013170232996344566
12, 0.013688070699572563
13, 0.014029227197170258
14, 0.014121923595666885
15, 0.013982823118567467
16, 0.01366104930639267
17, 0.013210872188210487
18, 0.012682992964982986
19, 0.012117361649870872
20, 0.011540897190570831
21, 0.010973966680467129
22, 0.010428935289382935
23, 0.009914932772517204
24, 0.009437588974833488
25, 0.008999805897474289
26, 0.008603475987911224
27, 0.008249129168689251
28, 0.00793633796274662
29, 0.0076638865284621716
30, 0.007430220954120159
31, 0.007233231328427792
32, 0.007070397492498159
33, 0.006938999053090811
34, 0.006836384069174528
35, 0.006759258918464184
36, 0.006704495754092932
37, 0.0066687180660665035
38, 0.006648230366408825
39, 0.006638951599597931
0 2.85075044631958 0.05 7.882176876068115
1 2.6839852333068848 0.05 6.986956596374512
2 2.508061647415161 0.05 6.101044654846191
3 2.311570882797241 0.05 5.182534694671631
4 2.0743443965911865 0.05 4.173396110534668
5 1.7523252964019775 0.05 2.9782233238220215
6 1.3605122566223145 0.05 1.7952821254730225
7 0.9985958933830261 0.05 0.967180073261261
8 0.8046044111251831 0.05 0.627903163433075
9 0.6830204129219055 0.05 0.4524756669998169
10 0.5815925002098083 0.05 0.32806915044784546
11 0.49567651748657227 0.05 0.23830027878284454
12 0.43017587065696716 0.05 0.17948158085346222
13 0.3795408010482788 0.05 0.1397155523300171
14 0.3394556939601898 0.05 0.11176195740699768
15 0.30713555216789246 0.05 0.09149302542209625
16 0.28057852387428284 0.05 0.07635484635829926
17 0.2584584057331085 0.05 0.06479016691446304
18 0.23979230225086212 0.05 0.055769696831703186
19 0.22385333478450775 0.05 0.04860209301114082
20 0.21007682383060455 0.05 0.042803969234228134
21 0.19801244139671326 0.05 0.038028813898563385
22 0.1873491257429123 0.05 0.03404325991868973
23 0.177839994430542 0.05 0.030675148591399193
24 0.16928058862686157 0.05 0.027793429791927338
25 0.16155989468097687 0.05 0.025315992534160614
26 0.15456663072109222 0.05 0.02317177690565586
27 0.14817994832992554 0.05 0.0212964229285717
28 0.14235079288482666 0.05 0.019653845578432083
29 0.1369735300540924 0.05 0.018197055906057358
30 0.13201607763767242 0.05 0.01690368726849556
31 0.12742367386817932 0.05 0.015748098492622375
32 0.12316825240850449 0.05 0.014713818207383156
33 0.11917515099048615 0.05 0.013775241561233997
34 0.11544264107942581 0.05 0.012925885617733002
35 0.11194664984941483 0.05 0.012154859490692616
36 0.10863807797431946 0.05 0.011447006836533546
37 0.10553111135959625 0.05 0.010801618918776512
38 0.10258420556783676 0.05 0.010206781327724457
39 0.09979024529457092 0.05 0.009658373892307281
40 0.09714528173208237 0.05 0.009153163060545921
41 0.09461726248264313 0.05 0.00868297554552555
42 0.0922185480594635 0.05 0.00824829749763012
43 0.08993125706911087 0.05 0.007844208739697933
44 0.0877271369099617 0.05 0.0074644144624471664
45 0.08563617616891861 0.05 0.007112828548997641
46 0.08363251388072968 0.05 0.006783878430724144
47 0.08170473575592041 0.05 0.006474739406257868
48 0.07984721660614014 0.05 0.00618368573486805
49 0.07806585729122162 0.05 0.005910851527005434
50 0.07636434584856033 0.05 0.005655995570123196
51 0.07471095025539398 0.05 0.005413726903498173
52 0.07313207536935806 0.05 0.005187327042222023
53 0.071586474776268 0.05 0.00497038196772337
54 0.0701095387339592 0.05 0.004767404869198799
55 0.06868451088666916 0.05 0.004575572907924652
56 0.06729672104120255 0.05 0.004392538219690323
57 0.06595028191804886 0.05 0.004218529909849167
58 0.06465379148721695 0.05 0.004054298624396324
59 0.06339588761329651 0.05 0.0038980734534561634
60 0.06217740848660469 0.05 0.0037496699951589108
61 0.06098705530166626 0.05 0.0036074735689908266
62 0.05983603745698929 0.05 0.003472589887678623
63 0.05870943143963814 0.05 0.0033430554904043674
64 0.0576326847076416 0.05 0.003221554681658745
65 0.05657993629574776 0.05 0.003104936331510544
66 0.055547330528497696 0.05 0.0029926381539553404
67 0.05455157905817032 0.05 0.0028863069601356983
68 0.05357794091105461 0.05 0.00278419628739357
69 0.052633095532655716 0.05 0.0026868637651205063
70 0.05169513449072838 0.05 0.00259195314720273
71 0.05079725384712219 0.05 0.002502697054296732
72 0.049922455102205276 0.05 0.0024172398261725903
73 0.04907193034887314 0.05 0.0023355765733867884
74 0.0482410304248333 0.05 0.0022571529261767864
75 0.04742167890071869 0.05 0.002181130461394787
76 0.04662752524018288 0.05 0.0021086891647428274
77 0.04585127532482147 0.05 0.0020390632562339306
78 0.045105475932359695 0.05 0.0019732690416276455
79 0.044359833002090454 0.05 0.0019085679668933153
80 0.043625541031360626 0.05 0.0018459055572748184
81 0.042939502745866776 0.05 0.0017883058171719313
82 0.0422418937087059 0.05 0.0017306713853031397
83 0.04156634584069252 0.05 0.0016757587436586618
84 0.04090045019984245 0.05 0.0016224973369389772
85 0.04026523232460022 0.05 0.0015724911354482174
86 0.03963117673993111 0.05 0.001523357117548585
87 0.039015717804431915 0.05 0.0014764101943001151
88 0.03841055929660797 0.05 0.0014309653779491782
89 0.03782888874411583 0.05 0.001387953758239746
90 0.03724399581551552 0.05 0.0013453657738864422
91 0.0366782620549202 0.05 0.001304804114624858
92 0.03613307327032089 0.05 0.0012663030065596104
93 0.03558611497282982 0.05 0.0012282563839107752
94 0.03506256267428398 0.05 0.0011923813726752996
95 0.034536298364400864 0.05 0.0011568563058972359
96 0.03402997925877571 0.05 0.0011231848038733006
97 0.033529672771692276 0.05 0.001090401317924261
98 0.03304484859108925 0.05 0.00105909607373178
99 0.0325603261590004 0.05 0.0010282655712217093
tuning, 0, 0.006626246031373739
tuning, 1, 0.004947129637002945
tuning, 2, 0.004376120399683714
tuning, 3, 0.004283745773136616
tuning, 4, 0.004168149549514055
tuning, 5, 0.0038936592172831297
tuning, 6, 0.0035646348260343075
tuning, 7, 0.003297705203294754
tuning, 8, 0.0031345151364803314
tuning, 9, 0.003045307472348213
tuning, 10, 0.0029819540213793516
tuning, 11, 0.002917013829573989
tuning, 12, 0.0028476479928940535
tuning, 13, 0.0027817594818770885
tuning, 14, 0.0027253367006778717
tuning, 15, 0.002676913281902671
tuning, 16, 0.0026317406445741653
tuning, 17, 0.002585336333140731

 20%|███████████████████████████████████████████████████████████████████████▌                                                                                                                                                                                                                                                                                              | 2/10 [00:59<03:58, 29.76s/it]
tuning, 19, 0.0024825483560562134
inversion time : 28.584417581558228
0, 0.09775816649198532
1, 0.09775816649198532
2, 0.09261520206928253
3, 0.08272544294595718
4, 0.06901426613330841
5, 0.05310673266649246
6, 0.037517718970775604
7, 0.02681243047118187
8, 0.020192071795463562
9, 0.0163106732070446
10, 0.013978395611047745
11, 0.012414786964654922
12, 0.011198345571756363
13, 0.010139189660549164
14, 0.009172957390546799
15, 0.008289553225040436
16, 0.007492671720683575
17, 0.006785673554986715
18, 0.006165574304759502
19, 0.005625999998301268
20, 0.00516023114323616
21, 0.004760603420436382
22, 0.0044206976890563965
23, 0.004133266396820545
24, 0.0038910945877432823
25, 0.003687340533360839
26, 0.003515279619023204
27, 0.0033694866579025984
28, 0.0032452137675136328
29, 0.003139268374070525
30, 0.003048834390938282
31, 0.002972476650029421
32, 0.002908642403781414
33, 0.0028564687818288803
34, 0.002815174637362361
35, 0.0027836011722683907
36, 0.002760921372100711
37, 0.002745792269706726
38, 0.0027370292227715254
39, 0.002733019646257162
0 2.673687219619751 0.05 8.7452392578125
1 2.5117063522338867 0.05 7.717706203460693
2 2.3432772159576416 0.05 6.717348098754883
3 2.0833327770233154 0.05 5.3096723556518555
4 1.7154462337493896 0.05 3.600018262863159
5 1.2680208683013916 0.05 1.966995120048523
6 0.9089107513427734 0.05 1.010631799697876
7 0.6684768795967102 0.05 0.5466675758361816
8 0.5329228639602661 0.05 0.3474394679069519
9 0.44958993792533875 0.05 0.2472769320011139
10 0.39132899045944214 0.05 0.18734171986579895
11 0.3471130132675171 0.05 0.14739824831485748
12 0.31265485286712646 0.05 0.11958613991737366
13 0.2848134934902191 0.05 0.09923651814460754
14 0.261639803647995 0.05 0.0837448462843895
15 0.24221168458461761 0.05 0.07176961749792099
16 0.22579969465732574 0.05 0.062373075634241104
17 0.21176347136497498 0.05 0.05485958606004715
18 0.1996680200099945 0.05 0.04877166077494621
19 0.18915380537509918 0.05 0.04377041012048721
20 0.17989523708820343 0.05 0.039590392261743546
21 0.1716453731060028 0.05 0.036042481660842896
22 0.16421064734458923 0.05 0.03298777714371681
23 0.15747350454330444 0.05 0.030336495488882065
24 0.15132109820842743 0.05 0.028012342751026154
25 0.14568188786506653 0.05 0.025963405147194862
26 0.14047472178936005 0.05 0.024140529334545135
27 0.13564784824848175 0.05 0.022510042414069176
28 0.13116037845611572 0.05 0.02104533091187477
29 0.1269511729478836 0.05 0.019716236740350723
30 0.12300694733858109 0.05 0.018510140478610992
31 0.11929481476545334 0.05 0.0174097940325737
32 0.11579245328903198 0.05 0.016402533277869225
33 0.11246522516012192 0.05 0.015473444946110249
34 0.10931839793920517 0.05 0.01461965125054121
35 0.10631276667118073 0.05 0.01382678933441639
36 0.10345105826854706 0.05 0.013092431239783764
37 0.10071446746587753 0.05 0.012408924289047718
38 0.09809845685958862 0.05 0.011772665195167065
39 0.0955948531627655 0.05 0.011179424822330475
40 0.09319256246089935 0.05 0.010624608024954796
41 0.09088319540023804 0.05 0.010104565881192684
42 0.08866599202156067 0.05 0.009617554023861885
43 0.08653771132230759 0.05 0.009161388501524925
44 0.08449466526508331 0.05 0.008733915165066719
45 0.08252833783626556 0.05 0.008332141675055027
46 0.08062788844108582 0.05 0.007952816784381866
47 0.07879997789859772 0.05 0.007596309296786785
48 0.07704974710941315 0.05 0.007262612693011761
49 0.07536224275827408 0.05 0.006947973743081093
50 0.07373805344104767 0.05 0.00665171816945076
51 0.07216781377792358 0.05 0.0063714394345879555
52 0.07066680490970612 0.05 0.006109158508479595
53 0.06921616196632385 0.05 0.005860915407538414
54 0.06782978773117065 0.05 0.00562848336994648
55 0.06647665053606033 0.05 0.005406158044934273
56 0.06517738848924637 0.05 0.0051969001069664955
57 0.0639185830950737 0.05 0.004998097661882639
58 0.0627034530043602 0.05 0.004809870384633541
59 0.06151615083217621 0.05 0.004629443399608135
60 0.0603601336479187 0.05 0.004457083530724049
61 0.0592392161488533 0.05 0.004293080419301987
62 0.05814041942358017 0.05 0.004135298077017069
63 0.05707152560353279 0.05 0.003984643146395683
64 0.056001368910074234 0.05 0.003836611285805702
65 0.05497537553310394 0.05 0.0036973189562559128
66 0.053965672850608826 0.05 0.0035627528559416533
67 0.05296507477760315 0.05 0.003431860823184252
68 0.051993075758218765 0.05 0.0033070556819438934
69 0.05103529617190361 0.05 0.003186337184160948
70 0.05009141564369202 0.05 0.0030695670284330845
71 0.0492064505815506 0.05 0.00296206446364522
72 0.04830138757824898 0.05 0.002854103222489357
73 0.04743235558271408 0.05 0.002752325963228941
74 0.04658107832074165 0.05 0.0026544195134192705
75 0.045785125344991684 0.05 0.002564480062574148
76 0.04497743397951126 0.05 0.0024747983552515507
77 0.04421718046069145 0.05 0.002391842659562826
78 0.04343798756599426 0.05 0.0023082871921360493
79 0.042691539973020554 0.05 0.002229637000709772
80 0.04195857420563698 0.05 0.002153733279556036
81 0.04131530225276947 0.05 0.002088201232254505
82 0.04058448225259781 0.05 0.002014978788793087
83 0.03990945219993591 0.05 0.0019485072698444128
84 0.03928796201944351 0.05 0.0018882934236899018
85 0.0386294424533844 0.05 0.0018255230970680714
86 0.03800904005765915 0.05 0.0017673568800091743
87 0.0374133437871933 0.05 0.0017123931320384145
88 0.03680853918194771 0.05 0.001657477580010891
89 0.03622977063059807 0.05 0.0016057637985795736
90 0.035654567182064056 0.05 0.0015551806427538395
91 0.03512560948729515 0.05 0.001509378431364894
92 0.03457827493548393 0.05 0.0014627061318606138
93 0.03406861051917076 0.05 0.0014199051074683666
94 0.03355211019515991 0.05 0.0013771781232208014
95 0.03300522267818451 0.05 0.0013326490297913551
96 0.03255681321024895 0.05 0.0012966841459274292
97 0.03204558789730072 0.05 0.0012562815099954605
98 0.031595487147569656 0.05 0.001221238635480404
