
  0%|                                                                                                                                                                                                                                                                                            | 0/10 [00:00<?, ?it/s]
0, 0.1364392638206482
1, 0.1364392638206482
2, 0.12979242205619812
3, 0.11694824695587158
4, 0.09893619269132614
5, 0.07756030559539795
6, 0.055496133863925934
7, 0.03877006843686104
8, 0.027035441249608994
9, 0.019472818821668625
10, 0.0150185851380229
11, 0.012625306844711304
12, 0.011442887596786022
13, 0.010874485597014427
14, 0.010546771809458733
15, 0.010251594707369804
16, 0.009884340688586235
17, 0.009414687752723694
18, 0.00885164737701416
19, 0.008223949931561947
20, 0.007564683444797993
21, 0.006907423958182335
22, 0.006282833404839039
23, 0.005717557854950428
24, 0.005225504748523235
25, 0.0048120226711034775
26, 0.0044737039133906364
27, 0.004202645272016525
28, 0.0039871628396213055
29, 0.003812883049249649
30, 0.00366505840793252
31, 0.0035308708902448416
32, 0.0034005288034677505
33, 0.0032667096238583326
34, 0.003125843359157443
35, 0.002977138850837946
36, 0.0028215330094099045
37, 0.002661818638443947
38, 0.0025013748090714216
39, 0.002343767788261175
40, 0.002192864427343011
41, 0.0020514195784926414
42, 0.00192156876437366
43, 0.0018043568124994636
44, 0.0016999226063489914
45, 0.0016077155014500022
46, 0.0015266233822330832
47, 0.001454786746762693
48, 0.001390675432048738
49, 0.001332427142187953
50, 0.001278688432648778
51, 0.0012283744290471077
52, 0.001180662657134235
53, 0.0011352257570251822
54, 0.001091845566406846
55, 0.0010505975224077702
56, 0.0010116503108292818
57, 0.000975055736489594
58, 0.000940968282520771
59, 0.000909305817913264
60, 0.000879958737641573
61, 0.0008526899619027972
62, 0.000827216892503202
63, 0.0008034405764192343
64, 0.0007810003007762134
65, 0.0007597649237141013
66, 0.0007394893327727914
67, 0.000720126205123961
68, 0.0007016205927357078
69, 0.0006839590496383607
70, 0.0006670972798019648
71, 0.0006511466344818473
72, 0.0006360895931720734
73, 0.0006219253991730511
74, 0.0006086253561079502
75, 0.0005961665883660316
76, 0.0005845190607942641
77, 0.0005736089078709483
78, 0.0005633666878566146
79, 0.000553723075427115
80, 0.0005446275463327765
81, 0.0005359678762033582
82, 0.0005277562304399908
83, 0.0005199210718274117
84, 0.0005124254967086017
85, 0.0005052845226600766
86, 0.0004984373808838427
87, 0.0004919060738757253
88, 0.0004856628365814686
89, 0.00047968822764232755
90, 0.0004739819560199976
91, 0.0004685125022660941
92, 0.0004632902273442596
93, 0.0004582763649523258
94, 0.0004534888721536845
95, 0.0004488901176955551
96, 0.0004444637743290514
97, 0.0004402300692163408
98, 0.00043613495654426515
99, 0.00043221734813414514
100, 0.00042842875700443983
101, 0.0004247849283274263
102, 0.00042127803317271173
103, 0.0004179038223810494
104, 0.00041462559602223337
105, 0.0004114647745154798
106, 0.00040840948349796236
107, 0.00040545890806242824
108, 0.0004026114474982023
109, 0.0003998382017016411
110, 0.0003971609694417566
111, 0.00039458874380216
112, 0.0003920732415281236
113, 0.000389652734156698
114, 0.00038730649976059794
115, 0.0003850477223750204
116, 0.0003828592016361654
117, 0.00038071972085162997
118, 0.00037868088111281395
119, 0.0003766772279050201
120, 0.00037474511191248894
121, 0.00037287536542862654
122, 0.0003710572491399944
123, 0.0003692992904689163
124, 0.00036760896909981966
125, 0.00036595790879800916
126, 0.00036435661604627967
127, 0.00036282101063989103
128, 0.00036133156390860677
129, 0.00035986147122457623
130, 0.0003584738587960601
131, 0.0003571067936718464
132, 0.0003557883610483259
133, 0.00035450662835501134
134, 0.0003532820846885443
135, 0.00035208783810958266
136, 0.00035091707832179964
137, 0.0003498148580547422
138, 0.00034872148535214365
139, 0.00034768375917337835
140, 0.00034667394356802106
141, 0.0003457041457295418
142, 0.000344761268934235
143, 0.0003438445273786783
144, 0.00034296451485715806
145, 0.00034211919410154223
146, 0.00034130847780033946
147, 0.0003405181341804564
148, 0.00033975436235778034
149, 0.0003390289784874767
150, 0.0003383340663276613
151, 0.00033765481202863157
152, 0.0003370095510035753
153, 0.00033638736931607127
154, 0.0003357886744197458
155, 0.000335221498971805
156, 0.00033467996399849653
157, 0.00033415466896258295
158, 0.00033365629496984184
159, 0.0003331729385536164
160, 0.00033272424479946494
161, 0.00033228611573576927
162, 0.0003318755771033466
163, 0.00033147563226521015
164, 0.0003311025211587548
165, 0.00033074754173867404
166, 0.00033041491406038404
167, 0.000330091395881027
168, 0.0003297979710623622
169, 0.00032951170578598976
170, 0.0003292563487775624
171, 0.0003289992455393076
172, 0.0003287701401859522
173, 0.00032855974859558046
174, 0.00032835532329045236
175, 0.00032816670136526227
176, 0.0003279859374742955
177, 0.00032783043570816517
178, 0.00032768453820608556
179, 0.0003275430644862354
180, 0.0003274173359386623
181, 0.00032730490784160793
182, 0.0003271975729148835
183, 0.00032711419044062495
184, 0.0003270319430157542
185, 0.0003269566805101931
186, 0.00032689617364667356
187, 0.00032683668541722
188, 0.00032679131254553795
189, 0.00032674852991476655
190, 0.0003267106367275119
191, 0.00032667870982550085
192, 0.0003266514977440238
193, 0.00032663275487720966
194, 0.00032662309240549803
195, 0.0003266104613430798
196, 0.000326602254062891
197, 0.00032660155557096004
198, 0.000326597219100222
199, 0.0003265991690568626
0 2.4587411880493164 0.05 7.744029998779297
1 2.3039638996124268 0.05 6.799747467041016
2 2.1422321796417236 0.05 5.878608703613281
3 1.9422587156295776 0.05 4.8323187828063965
4 1.660112977027893 0.05 3.530341625213623
5 1.259303331375122 0.05 2.031431198120117
6 0.8231140971183777 0.05 0.8678836822509766
7 0.5880475044250488 0.05 0.44296181201934814
8 0.48347803950309753 0.05 0.2994297444820404
9 0.4001495838165283 0.05 0.20510970056056976
10 0.342728853225708 0.05 0.15046751499176025
11 0.30008575320243835 0.05 0.11535388231277466
12 0.26755791902542114 0.05 0.09170162677764893
13 0.24190638959407806 0.05 0.07496112585067749
14 0.2210640162229538 0.05 0.06260046362876892
15 0.20383556187152863 0.05 0.053223248571157455
16 0.18942862749099731 0.05 0.04596557468175888
17 0.1771964728832245 0.05 0.04022088646888733
18 0.16665421426296234 0.05 0.03557738661766052
19 0.15745419263839722 0.05 0.03175775334239006
20 0.14929397404193878 0.05 0.028551306575536728
21 0.14198851585388184 0.05 0.02582544833421707
22 0.13539673388004303 0.05 0.02348322607576847
23 0.1293950080871582 0.05 0.02144748717546463
24 0.12390611320734024 0.05 0.01966649293899536
25 0.11887164413928986 0.05 0.018100809305906296
26 0.11423561722040176 0.05 0.01671646535396576
27 0.10993541032075882 0.05 0.01548162754625082
28 0.10595717281103134 0.05 0.014381431974470615
29 0.1022384986281395 0.05 0.01338968425989151
30 0.09878109395503998 0.05 0.012499397620558739
31 0.09552928805351257 0.05 0.011689999140799046
32 0.09247882664203644 0.05 0.010955344885587692
33 0.08960042893886566 0.05 0.01028398796916008
34 0.08688686043024063 0.05 0.009670515544712543
35 0.08430953323841095 0.05 0.009105311706662178
36 0.08187035471200943 0.05 0.008586076088249683
37 0.07954780757427216 0.05 0.008105836808681488
38 0.07734104990959167 0.05 0.007662343326956034
39 0.07523515820503235 0.05 0.007250752300024033
40 0.07322125881910324 0.05 0.006867771036922932
41 0.07129798829555511 0.05 0.006511724554002285
42 0.06945051997900009 0.05 0.006178634706884623
43 0.06768505275249481 0.05 0.005868498235940933
44 0.0659886822104454 0.05 0.005578024312853813
45 0.06435415893793106 0.05 0.0053051128052175045
46 0.06278873234987259 0.05 0.005050157196819782
47 0.061278846114873886 0.05 0.004810193087905645
48 0.05982489883899689 0.05 0.00458464166149497
49 0.05841994285583496 0.05 0.004371834918856621
50 0.057073622941970825 0.05 0.004172653891146183
51 0.05576528608798981 0.05 0.003983540926128626
52 0.05450884997844696 0.05 0.0038060585502535105
53 0.05328423157334328 0.05 0.003636962501332164
54 0.05210450664162636 0.05 0.0034776991233229637
55 0.05096497759222984 0.05 0.003327247453853488
56 0.04985930025577545 0.05 0.0031844456680119038
57 0.04878991097211838 0.05 0.003049309365451336
58 0.04775545373558998 0.05 0.002921375213190913
59 0.0467485673725605 0.05 0.0027994841802865267
60 0.04577682167291641 0.05 0.0026843100786209106
61 0.04483291879296303 0.05 0.002574752550572157
62 0.04391045495867729 0.05 0.0024698879569768906
63 0.04301488399505615 0.05 0.002370167290791869
64 0.04215189814567566 0.05 0.002276018261909485
65 0.04130982980132103 0.05 0.002185990335419774
66 0.04049406573176384 0.05 0.0021005074959248304
67 0.03969375044107437 0.05 0.002018299652263522
68 0.038919344544410706 0.05 0.0019403159385547042
69 0.0381721593439579 0.05 0.0018665299285203218
70 0.037435512989759445 0.05 0.0017951842164620757
71 0.03672442585229874 0.05 0.0017276329454034567
72 0.03603185713291168 0.05 0.0016630860045552254
73 0.035356227308511734 0.05 0.0016013020649552345
74 0.03469691798090935 0.05 0.001542137935757637
75 0.03405258059501648 0.05 0.0014853933826088905
76 0.03342965617775917 0.05 0.0014315457083284855
77 0.03282240033149719 0.05 0.001380009576678276
78 0.03222550451755524 0.05 0.0013302733423188329
79 0.03165079280734062 0.05 0.0012832480715587735
80 0.031082121655344963 0.05 0.001237550051882863
81 0.030528856441378593 0.05 0.0011938849929720163
82 0.029996076598763466 0.05 0.001152578042820096
83 0.029467910528182983 0.05 0.001112346537411213
84 0.02895992249250412 0.05 0.0010743264574557543
85 0.028457803651690483 0.05 0.0010373949771746993
86 0.027968216687440872 0.05 0.0010020076297223568
87 0.027496149763464928 0.05 0.0009684679098427296
88 0.02702534943819046 0.05 0.0009355867514386773
89 0.02657061628997326 0.05 0.0009043669560924172
90 0.026127418503165245 0.05 0.000874448916874826
91 0.025694390758872032 0.05 0.0008457034127786756
92 0.02527325414121151 0.05 0.0008182080928236246
93 0.02485732175409794 0.05 0.0007914985762909055
94 0.024446049705147743 0.05 0.0007655241061002016
95 0.024055995047092438 0.05 0.0007412899285554886
96 0.023667896166443825 0.05 0.0007175642531365156
97 0.02328592725098133 0.05 0.0006945899222046137
98 0.022912729531526566 0.05 0.0006725043058395386
99 0.022552207112312317 0.05 0.0006515076383948326
tuning, 0, 0.00035651656799018383
tuning, 1, 0.00035651656799018383
tuning, 2, 0.00035411788849160075
tuning, 3, 0.00035009306157007813
tuning, 4, 0.0003448935167398304
tuning, 5, 0.00033892918145284057
tuning, 6, 0.0003329034079797566
tuning, 7, 0.00032607425237074494
tuning, 8, 0.00031869288068264723
tuning, 9, 0.00031128418049775064
tuning, 10, 0.000303644104860723
tuning, 11, 0.00029594736406579614
tuning, 12, 0.00028895476134493947
tuning, 13, 0.0002823365502990782
tuning, 14, 0.0002757967449724674
tuning, 15, 0.00027009763289242983
tuning, 16, 0.00026461342349648476
tuning, 17, 0.00025906116934493184
tuning, 18, 0.0002536915708333254
tuning, 19, 0.0002485058503225446
tuning, 20, 0.00024356396170333028
tuning, 21, 0.00023905711714178324
tuning, 22, 0.00023457198403775692
tuning, 23, 0.00023025390692055225
tuning, 24, 0.00022588344290852547
tuning, 25, 0.0002217760484199971
tuning, 26, 0.00021765327255707234
tuning, 27, 0.00021390427718870342
tuning, 28, 0.00021025215392000973
tuning, 29, 0.00020667538046836853
tuning, 30, 0.0002032644988503307
tuning, 31, 0.00020018212671857327
tuning, 32, 0.00019719921692740172
tuning, 33, 0.00019424004130996764
tuning, 34, 0.00019134164904244244
tuning, 35, 0.00018853016081266105
tuning, 36, 0.00018582632765173912
tuning, 37, 0.0001829961547628045
tuning, 38, 0.00018029373313765973
tuning, 39, 0.00017765401571523398
tuning, 40, 0.00017516221851110458
tuning, 41, 0.00017282270709984004
tuning, 42, 0.00017029295850079507
tuning, 43, 0.00016780570149421692
tuning, 44, 0.00016558446804992855
tuning, 45, 0.00016327887715306133
tuning, 46, 0.00016113277524709702
tuning, 47, 0.0001589952444192022
tuning, 48, 0.00015700825315434486
tuning, 49, 0.00015498446009587497
tuning, 50, 0.00015303550753742456
tuning, 51, 0.00015116744907572865
tuning, 52, 0.0001492708397563547
tuning, 53, 0.00014751189155504107
tuning, 54, 0.00014564288721885532
tuning, 55, 0.00014396512415260077
tuning, 56, 0.00014224494225345552
tuning, 57, 0.00014045734133105725
tuning, 58, 0.0001388651435263455
tuning, 59, 0.00013736364780925214
tuning, 60, 0.00013593380572274327
tuning, 61, 0.00013443795614875853
tuning, 62, 0.00013316588592715561
tuning, 63, 0.00013187641161493957
tuning, 64, 0.00013046189269516617
tuning, 65, 0.00012895450345240533
tuning, 66, 0.00012757675722241402
tuning, 67, 0.00012629656703211367
tuning, 68, 0.00012516365677583963
tuning, 69, 0.0001239981793332845
tuning, 70, 0.00012288115976843983
tuning, 71, 0.00012173053983133286
tuning, 72, 0.00012056862760800868
tuning, 73, 0.00011948298197239637
tuning, 74, 0.00011831906158477068
tuning, 75, 0.00011712060950230807
tuning, 76, 0.00011614931281656027
tuning, 77, 0.00011525217996677384
tuning, 78, 0.0001142151522799395
tuning, 79, 0.00011322082718834281
tuning, 80, 0.00011224002810195088
tuning, 81, 0.00011124798766104504
tuning, 82, 0.00011030184396076947
tuning, 83, 0.00010944954556180164
tuning, 84, 0.00010853143612621352
tuning, 85, 0.00010762095917016268
tuning, 86, 0.00010670685151126236
tuning, 87, 0.00010588925215415657
tuning, 88, 0.00010510046558920294
tuning, 89, 0.00010435812146170065
tuning, 90, 0.00010346384078729898
tuning, 91, 0.00010272295912727714
tuning, 92, 0.00010203849524259567
tuning, 93, 0.00010126765118911862
tuning, 94, 0.0001004046862362884
tuning, 95, 9.963933553081006e-05
tuning, 96, 9.900875011226162e-05
tuning, 97, 9.838848927756771e-05
tuning, 98, 9.764020796865225e-05
tuning, 99, 9.694971231510863e-05
tuning, 100, 9.631282591726631e-05
tuning, 101, 9.573109855409712e-05
tuning, 102, 9.501087333774194e-05
tuning, 103, 9.441078873351216e-05
tuning, 104, 9.386782767251134e-05
tuning, 105, 9.316635987488553e-05
tuning, 106, 9.269820293411613e-05
tuning, 107, 9.205384412780404e-05
tuning, 108, 9.150175901595503e-05
tuning, 109, 9.096901339944452e-05
tuning, 110, 9.041840530699119e-05
tuning, 111, 8.985542081063613e-05
tuning, 112, 8.935090590966865e-05
tuning, 113, 8.882024849299341e-05
tuning, 114, 8.830655133351684e-05
tuning, 115, 8.781794167589396e-05
tuning, 116, 8.734309813007712e-05
tuning, 117, 8.68638016982004e-05
tuning, 118, 8.644403715152293e-05
tuning, 119, 8.597050327807665e-05
tuning, 120, 8.554104715585709e-05
tuning, 121, 8.512500789947808e-05
tuning, 122, 8.466893632430583e-05
tuning, 123, 8.420633821515366e-05
tuning, 124, 8.378078928217292e-05
tuning, 125, 8.336800965480506e-05
tuning, 126, 8.29692289698869e-05
tuning, 127, 8.260193862952292e-05
tuning, 128, 8.219927258323878e-05
tuning, 129, 8.183397585526109e-05
tuning, 130, 8.151702058967203e-05
tuning, 131, 8.118203550111502e-05
tuning, 132, 8.081646228674799e-05
tuning, 133, 8.048414019867778e-05
tuning, 134, 8.014946797629818e-05
tuning, 135, 7.982394890859723e-05
tuning, 136, 7.949794235173613e-05
tuning, 137, 7.919307245174423e-05
tuning, 138, 7.889319385867566e-05
tuning, 139, 7.862718484830111e-05
tuning, 140, 7.83024588599801e-05
tuning, 141, 7.805279165040702e-05
tuning, 142, 7.779884617775679e-05
tuning, 143, 7.752752571832389e-05
tuning, 144, 7.729846402071416e-05
tuning, 145, 7.706708856858313e-05
tuning, 146, 7.686645403737202e-05
tuning, 147, 7.663655560463667e-05
tuning, 148, 7.638218812644482e-05
tuning, 149, 7.614951755385846e-05
tuning, 150, 7.596954674227163e-05
tuning, 151, 7.576061761938035e-05
tuning, 152, 7.557204662589356e-05
tuning, 153, 7.538301724707708e-05
tuning, 154, 7.520694634877145e-05
tuning, 155, 7.504643144784495e-05
tuning, 156, 7.489779818570241e-05
tuning, 157, 7.473492587450892e-05
tuning, 158, 7.458134496118873e-05
tuning, 159, 7.44467179174535e-05
tuning, 160, 7.431627454934642e-05
tuning, 161, 7.41744224797003e-05
tuning, 162, 7.40624382160604e-05
tuning, 163, 7.393358100671321e-05
tuning, 164, 7.381931936834008e-05
tuning, 165, 7.373280823230743e-05
tuning, 166, 7.364845077972859e-05
tuning, 167, 7.356341666309163e-05
tuning, 168, 7.346791971940547e-05
tuning, 169, 7.336100679822266e-05
tuning, 170, 7.331289089052007e-05
tuning, 171, 7.323943282244727e-05
tuning, 172, 7.316637493204325e-05
tuning, 173, 7.309702778002247e-05
tuning, 174, 7.302213634829968e-05
tuning, 175, 7.297418778762221e-05
tuning, 176, 7.292607187991962e-05
tuning, 177, 7.288351480383426e-05
tuning, 178, 7.286628533620387e-05
tuning, 179, 7.282871956704184e-05
tuning, 180, 7.277862459886819e-05
tuning, 181, 7.274707604665309e-05
tuning, 182, 7.271161302924156e-05
tuning, 183, 7.267759792739525e-05
tuning, 184, 7.266682223416865e-05
tuning, 185, 7.263084262376651e-05
tuning, 186, 7.259498670464382e-05
tuning, 187, 7.260497659444809e-05
tuning, 188, 7.259402627823874e-05
tuning, 189, 7.257834658958018e-05
tuning, 190, 7.257883407874033e-05
tuning, 191, 7.2564507718198e-05
tuning, 192, 7.25648133084178e-05
tuning, 193, 7.253645162563771e-05
tuning, 194, 7.255601667566225e-05
tuning, 195, 7.252748036989942e-05
tuning, 196, 7.254800584632903e-05
tuning, 197, 7.254681986523792e-05
tuning, 198, 7.255614036694169e-05
tuning, 199, 7.25442951079458e-05

 10%|███████████████████████████▌                                                                                                                                                                                                                                                       | 1/10 [02:32<22:50, 152.31s/it]
0, 0.1123598963022232
1, 0.1123598963022232
2, 0.10478788614273071
3, 0.09046944230794907
4, 0.071245476603508
5, 0.05020012706518173
6, 0.03146933764219284
7, 0.020328570157289505
8, 0.01486541610211134
9, 0.012927155010402203
10, 0.012798355892300606
11, 0.013364007696509361
12, 0.014018712565302849
13, 0.014490386471152306
14, 0.014691284857690334
15, 0.014629128389060497
16, 0.014348823577165604
17, 0.013909201137721539
18, 0.013365127146244049
19, 0.012757240794599056
20, 0.012115910649299622
21, 0.011461607180535793
22, 0.010808161459863186
23, 0.010165035724639893
24, 0.00954125914722681
25, 0.008945147506892681
26, 0.008383331820368767
27, 0.007862778380513191
28, 0.007387313060462475
29, 0.006958698853850365
30, 0.006577200721949339
31, 0.006238959729671478
32, 0.005938011221587658
33, 0.005669078789651394
34, 0.005425096955150366
35, 0.0052001746371388435
36, 0.004989895969629288
37, 0.0047909654676914215
38, 0.004601835738867521
39, 0.004421242047101259
40, 0.0042487820610404015
41, 0.004084602929651737
42, 0.0039289565756917
43, 0.0037828420754522085
44, 0.0036468475591391325
45, 0.00352083845064044
46, 0.0034049306996166706
47, 0.0032990106847137213
48, 0.003202290739864111
49, 0.003114156424999237
50, 0.003033714136108756
51, 0.0029600458219647408
52, 0.002891756594181061
53, 0.0028279104735702276
54, 0.0027675912715494633
55, 0.0027105044573545456
56, 0.0026564679574221373
57, 0.0026049665175378323
58, 0.0025558117777109146
59, 0.002508560661226511
60, 0.0024633468128740788
61, 0.0024201443884521723
62, 0.0023789633996784687
63, 0.002339836210012436
64, 0.0023025814443826675
65, 0.002267169766128063
66, 0.0022333930246531963
67, 0.0022011478431522846
68, 0.0021704004611819983
69, 0.002140873344615102
70, 0.002112377667799592
71, 0.0020849332213401794
72, 0.0020584340672940016
73, 0.002032611984759569
74, 0.002007629256695509
75, 0.001983510795980692
76, 0.0019600458908826113
77, 0.0019371786620467901
78, 0.0019149389117956161
79, 0.001893328968435526
80, 0.001872383407317102
81, 0.0018520697485655546
82, 0.0018323126714676619
83, 0.0018131246324628592
84, 0.0017945559229701757
85, 0.0017764854710549116
86, 0.0017588980263099074
87, 0.001741674728691578
88, 0.0017249066149815917
89, 0.001708578085526824
