
  0%|                                                                                                                                                                                                                                                                                            | 0/10 [00:00<?, ?it/s]
0, 0.1364392638206482
1, 0.1364392638206482
2, 0.12979237735271454
3, 0.11694815754890442
4, 0.09893597662448883
5, 0.07756030559539795
6, 0.055496156215667725
7, 0.038770146667957306
8, 0.027035435661673546
9, 0.019472910091280937
10, 0.015018641017377377
11, 0.012625327333807945
12, 0.011442872695624828
13, 0.010874567553400993
14, 0.010546858422458172
15, 0.010251532308757305
16, 0.009884471073746681
17, 0.009414585307240486
18, 0.008851755410432816
19, 0.008223901502788067
20, 0.007564723026007414
21, 0.0069075897336006165
22, 0.006282836198806763
23, 0.005717627704143524
24, 0.005225576460361481
25, 0.004812020342797041
26, 0.004473692737519741
27, 0.004202645272016525
28, 0.0039871553890407085
29, 0.0038128725718706846
30, 0.003664907533675432
31, 0.00353085994720459
32, 0.00340048735961318
33, 0.003266701940447092
34, 0.003125858958810568
35, 0.0029771295376122
36, 0.002821585163474083
37, 0.0026618503034114838
38, 0.002501394134014845
39, 0.0023437729105353355
40, 0.0021928835194557905
41, 0.0020514149218797684
42, 0.0019215692300349474
43, 0.001804340980015695
44, 0.0016999456565827131
45, 0.0016077212058007717
46, 0.0015266028931364417
47, 0.001454800134524703
48, 0.0013906797394156456
49, 0.001332432497292757
50, 0.0012786959996446967
51, 0.0012283930554986
52, 0.0011806298280134797
53, 0.0011352385627105832
54, 0.0010918350890278816
55, 0.0010505685349926353
56, 0.0010116574121639132
57, 0.0009750478784553707
58, 0.0009409533231519163
59, 0.0009093093103729188
60, 0.0008799502393230796
61, 0.0008526832098141313
62, 0.0008272244012914598
63, 0.000803427945356816
64, 0.0007809952367097139
65, 0.0007597510702908039
66, 0.0007394985295832157
67, 0.000720141630154103
68, 0.0007016232120804489
69, 0.0006839565467089415
70, 0.0006671034498140216
71, 0.0006511538522318006
72, 0.0006360936677083373
73, 0.0006219232454895973
74, 0.0006086284993216395
75, 0.000596162280999124
76, 0.0005845270352438092
77, 0.0005736049497500062
78, 0.0005633656401187181
79, 0.0005537299439311028
80, 0.0005446248687803745
81, 0.0005359717179089785
82, 0.0005277600139379501
83, 0.0005199247389100492
84, 0.0005124227609485388
85, 0.0005052929045632482
86, 0.0004984348779544234
87, 0.0004919091006740928
88, 0.00048565311590209603
89, 0.0004796929133590311
90, 0.0004739864671137184
91, 0.0004685161402449012
92, 0.00046328961616382003
93, 0.0004582825058605522
94, 0.0004534925101324916
95, 0.0004488911363296211
96, 0.0004444702062755823
97, 0.00044022963265888393
98, 0.00043613952584564686
99, 0.00043223134707659483
100, 0.0004284337046556175
101, 0.0004247967153787613
102, 0.0004212867352180183
103, 0.0004179072566330433
104, 0.00041463534580543637
105, 0.0004114733310416341
106, 0.00040842179441824555
107, 0.0004054642631672323
108, 0.0004026134847663343
109, 0.00039983581518754363
110, 0.0003971588739659637
111, 0.0003945801581721753
112, 0.00039207719964906573
113, 0.00038966041756793857
114, 0.000387314532417804
115, 0.0003850499342661351
116, 0.00038285693153738976
117, 0.00038072685129009187
118, 0.0003786797169595957
119, 0.00037668313598260283
120, 0.000374751107301563
121, 0.00037288013845682144
122, 0.000371058180462569
123, 0.00036931148497387767
124, 0.0003676115011330694
125, 0.0003659653593786061
126, 0.0003643642121460289
127, 0.00036283349618315697
128, 0.0003613269072957337
129, 0.000359867000952363
130, 0.00035848081461153924
131, 0.0003571084816940129
132, 0.0003557925811037421
133, 0.00035450980067253113
134, 0.00035328426747582853
135, 0.0003520860045682639
136, 0.0003509265370666981
137, 0.00034981369390152395
138, 0.000348734378349036
139, 0.0003476842539384961
140, 0.0003466741181910038
141, 0.00034570577554404736
142, 0.00034476362634450197
143, 0.00034384787431918085
144, 0.00034297173260711133
145, 0.0003421133733354509
146, 0.0003413103986531496
147, 0.00034051697002723813
148, 0.0003397553227841854
149, 0.0003390345664229244
150, 0.0003383350558578968
151, 0.00033765783882699907
152, 0.0003370146732777357
153, 0.00033639592584222555
154, 0.00033579475712031126
155, 0.00033522475860081613
156, 0.0003346759476698935
157, 0.00033414605422876775
158, 0.00033365440322086215
159, 0.0003331756161060184
160, 0.0003327284939587116
161, 0.0003322896081954241
162, 0.00033187534427270293
163, 0.00033147921203635633
164, 0.00033110249205492437
165, 0.0003307532169856131
166, 0.0003304127021692693
167, 0.00033009829348884523
168, 0.00032980425748974085
169, 0.000329517264617607
170, 0.00032925582490861416
171, 0.0003290058230049908
172, 0.00032877022749744356
173, 0.0003285558777861297
174, 0.0003283547703176737
175, 0.0003281760145910084
176, 0.0003279917291365564
177, 0.00032782889320515096
178, 0.00032768104574643075
179, 0.0003275475464761257
180, 0.0003274198097642511
181, 0.0003273092152085155
182, 0.00032720956369303167
183, 0.0003271165187470615
184, 0.00032703031320124865
185, 0.0003269606677349657
186, 0.0003269009757786989
187, 0.0003268421860411763
188, 0.00032679171999916434
189, 0.0003267443389631808
190, 0.00032670877408236265
191, 0.0003266805724706501
192, 0.00032665557228028774
193, 0.0003266381099820137
194, 0.0003266222192905843
195, 0.00032661407021805644
196, 0.00032660248689353466
197, 0.0003266012645326555
198, 0.00032659206772223115
199, 0.00032659806311130524
0 2.4587411880493164 0.05 7.744032382965088
1 2.3039636611938477 0.05 6.799747943878174
2 2.1422367095947266 0.05 5.878635406494141
3 1.9422526359558105 0.05 4.832289695739746
4 1.6601158380508423 0.05 3.5303544998168945
5 1.2593034505844116 0.05 2.0314321517944336
6 0.8230941891670227 0.05 0.8678418397903442
7 0.5880466103553772 0.05 0.4429605007171631
8 0.4834979474544525 0.05 0.2994545102119446
9 0.4001578092575073 0.05 0.20511814951896667
10 0.3427285850048065 0.05 0.15046730637550354
11 0.30009037256240845 0.05 0.11535745114088058
12 0.2675632834434509 0.05 0.0917053297162056
13 0.24190662801265717 0.05 0.07496129721403122
14 0.22106735408306122 0.05 0.06260236352682114
15 0.203825905919075 0.05 0.05321821570396423
16 0.1894303560256958 0.05 0.04596642032265663
17 0.17720669507980347 0.05 0.04022552818059921
18 0.16666311025619507 0.05 0.03558119013905525
19 0.1574423611164093 0.05 0.031752996146678925
20 0.14929580688476562 0.05 0.028552014380693436
21 0.14198702573776245 0.05 0.025824913755059242
22 0.13539943099021912 0.05 0.02348416857421398
23 0.12940262258052826 0.05 0.021450020372867584
24 0.12390931695699692 0.05 0.01966751180589199
25 0.1188715398311615 0.05 0.018100781366229057
26 0.11423388868570328 0.05 0.016715966165065765
27 0.10993959754705429 0.05 0.015482809394598007
28 0.1059575080871582 0.05 0.014381525106728077
29 0.10223983973264694 0.05 0.013390040025115013
30 0.09877993911504745 0.05 0.012499107979238033
31 0.09552998840808868 0.05 0.011690173298120499
32 0.09247177839279175 0.05 0.01095367781817913
33 0.08959954977035522 0.05 0.010283789597451687
34 0.08688675612211227 0.05 0.009670494124293327
35 0.0843144878745079 0.05 0.009106382727622986
36 0.08186780661344528 0.05 0.008585545234382153
37 0.07954751700162888 0.05 0.008105779066681862
38 0.07734421640634537 0.05 0.0076629710383713245
39 0.07523496448993683 0.05 0.007250716909766197
40 0.07321682572364807 0.05 0.006866941228508949
41 0.07129408419132233 0.05 0.0065110125578939915
42 0.06944893300533295 0.05 0.006178352981805801
43 0.06768691539764404 0.05 0.005868822801858187
44 0.0659828633069992 0.05 0.0055770413018763065
45 0.06435219198465347 0.05 0.0053047905676066875
46 0.06278955936431885 0.05 0.005050290375947952
47 0.06127793714404106 0.05 0.004810052458196878
48 0.05982660502195358 0.05 0.004584903828799725
49 0.058422721922397614 0.05 0.004372251220047474
50 0.05706927925348282 0.05 0.004172018729150295
51 0.0557643324136734 0.05 0.003983405418694019
52 0.05450620502233505 0.05 0.00380569021217525
53 0.053289566189050674 0.05 0.0036376919597387314
54 0.0521090142428875 0.05 0.00347830168902874
55 0.05096554011106491 0.05 0.0033273217268288136
56 0.049860212951898575 0.05 0.003184562548995018
57 0.04879013076424599 0.05 0.0030493373051285744
58 0.04775533080101013 0.05 0.0029213610105216503
59 0.046751368790864944 0.05 0.002799820387735963
60 0.04577615484595299 0.05 0.0026842323131859303
61 0.04482784494757652 0.05 0.002574170008301735
62 0.043911512941122055 0.05 0.0024700076319277287
63 0.043016210198402405 0.05 0.0023703137412667274
64 0.04214935004711151 0.05 0.0022757435217499733
65 0.041308119893074036 0.05 0.0021858096588402987
66 0.04049338772892952 0.05 0.0021004374139010906
67 0.039695870131254196 0.05 0.002018515719100833
68 0.03892115503549576 0.05 0.0019404971972107887
69 0.03817054256796837 0.05 0.0018663720693439245
70 0.03743612766265869 0.05 0.0017952435882762074
71 0.03672575578093529 0.05 0.0017277582082897425
72 0.03603017330169678 0.05 0.00166293082293123
73 0.0353567972779274 0.05 0.0016013539861887693
74 0.03469767048954964 0.05 0.0015422054566442966
75 0.034055739641189575 0.05 0.0014856694033369422
76 0.033430375158786774 0.05 0.001431607874110341
77 0.032819148153066635 0.05 0.0013797362335026264
78 0.032227613031864166 0.05 0.0013304478488862514
79 0.03164716809988022 0.05 0.0012829543557018042
80 0.031082555651664734 0.05 0.0012375847436487675
81 0.030528465285897255 0.05 0.0011938547249883413
82 0.029992522671818733 0.05 0.0011523051653057337
83 0.02946898527443409 0.05 0.0011124277953058481
84 0.028957892209291458 0.05 0.0010741760488599539
85 0.02845684625208378 0.05 0.0010373254772275686
86 0.02797063998878002 0.05 0.0010021813213825226
87 0.02749396488070488 0.05 0.0009683141252025962
88 0.027026353403925896 0.05 0.0009356564842164516
89 0.02657228894531727 0.05 0.0009044810431078076
90 0.02612977847456932 0.05 0.000874606950674206
91 0.025691762566566467 0.05 0.0008455306524410844
92 0.02527114748954773 0.05 0.0008180718868970871
93 0.02485627867281437 0.05 0.0007914322195574641
94 0.02445116639137268 0.05 0.0007658445974811912
95 0.024056123569607735 0.05 0.0007412979030050337
96 0.02366579696536064 0.05 0.0007174370693974197
97 0.023287255316972733 0.05 0.0006946694338694215
98 0.02291535772383213 0.05 0.0006726588471792638
99 0.022552521899342537 0.05 0.0006515260320156813
100 0.022193796932697296 0.05 0.0006309641757979989
101 0.021848175674676895 0.05 0.0006114654242992401
102 0.021509753540158272 0.05 0.0005926692392677069
103 0.021173551678657532 0.05 0.0005742869107052684
104 0.020848209038376808 0.05 0.0005567740881815553
105 0.020529218018054962 0.05 0.0005398664507083595
106 0.020217593759298325 0.05 0.0005236009601503611
107 0.019911030307412148 0.05 0.0005078424583189189
108 0.01961207203567028 0.05 0.0004927067784592509
109 0.019317755475640297 0.05 0.0004780296003445983
110 0.019029080867767334 0.05 0.0004638496320694685
111 0.018747400492429733 0.05 0.00045021879486739635
112 0.018471091985702515 0.05 0.0004370455862954259
113 0.01819821074604988 0.05 0.0004242275608703494
114 0.017933232709765434 0.05 0.0004119634395465255
115 0.017672574147582054 0.05 0.0004000747576355934
116 0.017414577305316925 0.05 0.000388478918466717
117 0.01716582663357258 0.05 0.0003774600918404758
118 0.01692241244018078 0.05 0.00036683096550405025
119 0.01667972467839718 0.05 0.00035638484405353665
120 0.016443630680441856 0.05 0.0003463673638179898
121 0.016209537163376808 0.05 0.00033657567109912634
122 0.015983963385224342 0.05 0.000327273242874071
123 0.015760647132992744 0.05 0.0003181922947987914
124 0.015540571883320808 0.05 0.0003093681298196316
125 0.015324382111430168 0.05 0.00030082050943747163
126 0.015113596804440022 0.05 0.0002926019369624555
127 0.014906032010912895 0.05 0.0002846201241482049
128 0.014701646752655506 0.05 0.00027686840621754527
129 0.014504780992865562 0.05 0.00026950318715535104
130 0.014308183453977108 0.05 0.00026224699104204774
131 0.014114171266555786 0.05 0.00025518331676721573
132 0.013924216851592064 0.05 0.00024836085503920913
133 0.013739226385951042 0.05 0.00024180543550755829
134 0.013558248989284039 0.05 0.0002354771422687918
135 0.013379843905568123 0.05 0.00022932089632377028
136 0.013199609704315662 0.05 0.0002231843100162223
137 0.013028765097260475 0.05 0.000217444307054393
138 0.012854598462581635 0.05 0.0002116696268785745
139 0.01269222516566515 0.05 0.00020635596592910588
140 0.012525534257292747 0.05 0.00020097130618523806
141 0.012365389615297318 0.05 0.00019586514099501073
142 0.012203309684991837 0.05 0.00019076417083851993
143 0.012049973011016846 0.05 0.00018600031035020947
144 0.01189639326184988 0.05 0.000181289273314178
145 0.01174366194754839 0.05 0.00017666423809714615
146 0.011595623567700386 0.05 0.00017223830218426883
147 0.011451325379312038 0.05 0.00016797824355307966
148 0.011308485642075539 0.05 0.00016381377645302564
149 0.011166910640895367 0.05 0.00015973777044564486
150 0.011027375236153603 0.05 0.00015577072917949408
151 0.010891743935644627 0.05 0.00015196247841231525
152 0.010756883770227432 0.05 0.00014822262164670974
153 0.010624406859278679 0.05 0.0001445942179998383
154 0.010493074543774128 0.05 0.00014104157162364572
155 0.010366233065724373 0.05 0.00013765229959972203
156 0.01023820973932743 0.05 0.00013427328667603433
157 0.010115131735801697 0.05 0.0001310643565375358
158 0.009991893544793129 0.05 0.00012789014726877213
159 0.009872902184724808 0.05 0.00012486227205954492
160 0.009755110368132591 0.05 0.00012190062261652201
161 0.009636904112994671 0.05 0.00011896429350599647
162 0.009524805471301079 0.05 0.00011621274461504072
163 0.009413043968379498 0.05 0.00011350151908118278
164 0.009301068261265755 0.05 0.00011081720003858209
165 0.009189341217279434 0.05 0.00010817087604664266
166 0.00908247847110033 0.05 0.00010566964920144528
167 0.008976025506854057 0.05 0.00010320712317479774
168 0.008875947445631027 0.05 0.00010091854346683249
169 0.008769341744482517 0.05 9.850891365204006e-05
170 0.008666707202792168 0.05 9.62165358942002e-05
171 0.008567814715206623 0.05 9.403330477653071e-05
172 0.008469680324196815 0.05 9.189155389321968e-05
173 0.008374503813683987 0.05 8.983792213257402e-05
174 0.00827713217586279 0.05 8.776095637585968e-05
175 0.008183042518794537 0.05 8.577705739298835e-05
176 0.00808853842318058 0.05 8.380724466405809e-05
177 0.007998356595635414 0.05 8.19488923298195e-05
178 0.00790870375931263 0.05 8.012205944396555e-05
179 0.007822052575647831 0.05 7.837597513571382e-05
180 0.007730329409241676 0.05 7.654864020878449e-05
181 0.007648711558431387 0.05 7.494076271541417e-05
182 0.007560339756309986 0.05 7.321906741708517e-05
183 0.007477953098714352 0.05 7.163198461057618e-05
184 0.0073959240689873695 0.05 7.006907253526151e-05
185 0.007317266892641783 0.05 6.858660344732925e-05
186 0.007233893033117056 0.05 6.703253893647343e-05
187 0.0071555678732693195 0.05 6.55888143228367e-05
188 0.007078463677316904 0.05 6.418292468879372e-05
189 0.006998933386057615 0.05 6.274878251133487e-05
190 0.006923567969352007 0.05 6.140468030935153e-05
191 0.00684760557487607 0.05 6.006465628161095e-05
192 0.0067795212380588055 0.05 5.887617226107977e-05
193 0.006701230071485043 0.05 5.7524197472957894e-05
194 0.006631447467952967 0.05 5.633239197777584e-05
195 0.006561169866472483 0.05 5.514473741641268e-05
196 0.006490470841526985 0.05 5.396272899815813e-05
197 0.006421499885618687 0.05 5.282195343170315e-05
198 0.006356643512845039 0.05 5.176035483600572e-05
199 0.006287765689194202 0.05 5.064472497906536e-05
200 0.006224491633474827 0.05 4.9630572902970016e-05
201 0.00615714630112052 0.05 4.856243685935624e-05
202 0.006092806812375784 0.05 4.755283225676976e-05
203 0.006028132047504187 0.05 4.654864460462704e-05
204 0.005964785814285278 0.05 4.5575477997772396e-05
205 0.0059031108394265175 0.05 4.463786171982065e-05
206 0.00584604125469923 0.05 4.377894219942391e-05
207 0.005784275475889444 0.05 4.285875183995813e-05
208 0.0057241846807301044 0.05 4.197288217255846e-05
209 0.005663877818733454 0.05 4.1093138861469924e-05
210 0.005608819425106049 0.05 4.029808769701049e-05
211 0.005548594053834677 0.05 3.943732372135855e-05
212 0.005495434161275625 0.05 3.8685266190441325e-05
213 0.005437766667455435 0.05 3.787761670537293e-05
214 0.0053786360658705235 0.05 3.705832932610065e-05
215 0.005329371429979801 0.05 3.6382582038640976e-05
216 0.005276577081531286 0.05 3.566531086107716e-05
217 0.005221547093242407 0.05 3.492528048809618e-05
218 0.0051707918755710125 0.05 3.4249609598191455e-05
219 0.0051215109415352345 0.05 3.3599881135160103e-05
220 0.005069334991276264 0.05 3.2918764190981165e-05
221 0.00501856068149209 0.05 3.2262640161206946e-05
222 0.004969651345163584 0.05 3.1636864150641486e-05
223 0.0049175783060491085 0.05 3.0977338610682636e-05
224 0.004873738158494234 0.05 3.042747630388476e-05
225 0.0048240674659609795 0.05 2.981043144245632e-05
226 0.004776353016495705 0.05 2.9223643650766462e-05
227 0.0047293733805418015 0.05 2.865158603526652e-05
228 0.004685541149228811 0.05 2.8122962248744443e-05
229 0.004640242550522089 0.05 2.7581820177147165e-05
230 0.004593336023390293 0.05 2.7027010219171643e-05
231 0.004551970865577459 0.05 2.65424168901518e-05
232 0.004503380972892046 0.05 2.5978788471547887e-05
233 0.00446349335834384 0.05 2.552062869654037e-05
234 0.004420775454491377 0.05 2.5034474674612284e-05
235 0.00437945919111371 0.05 2.4568715161876753e-05
236 0.0043338448740541935 0.05 2.4059589122771285e-05
237 0.004293533973395824 0.05 2.3614096789970063e-05
238 0.0042518870905041695 0.05 2.3158208932727575e-05
239 0.00421090517193079 0.05 2.2713938960805535e-05
240 0.00417495658621192 0.05 2.2327774786390364e-05
241 0.004132579546421766 0.05 2.1876809114473872e-05
242 0.004093802534043789 0.05 2.146818587789312e-05
243 0.004055132158100605 0.05 2.106451938743703e-05
244 0.004019942134618759 0.05 2.0700510503957048e-05
245 0.003980335313826799 0.05 2.0294615751481615e-05
246 0.003944898024201393 0.05 1.9934854208258912e-05
247 0.0039062441792339087 0.05 1.9546110706869513e-05
248 0.0038716294802725315 0.05 1.9201233953936026e-05
249 0.003834131173789501 0.05 1.883108780020848e-05
250 0.003801666898652911 0.05 1.8513548639020883e-05
251 0.0037654999177902937 0.05 1.816296935430728e-05
252 0.0037299063988029957 0.05 1.7821219444158487e-05
253 0.0036976849660277367 0.05 1.7514645151095465e-05
254 0.003663640236482024 0.05 1.7193611711263657e-05
255 0.0036311731673777103 0.05 1.689022610662505e-05
256 0.00359713495709002 0.05 1.6575053450651467e-05
257 0.0035671652294695377 0.05 1.6300013157888316e-05
258 0.0035313533153384924 0.05 1.5974375855876133e-05
259 0.003499758429825306 0.05 1.5689809515606612e-05
260 0.0034696876537054777 0.05 1.542134486953728e-05
261 0.0034398711286485195 0.05 1.5157440429902636e-05
262 0.0034090240951627493 0.05 1.4886811186443083e-05
263 0.003376356791704893 0.05 1.4602870578528382e-05
264 0.003344031283631921 0.05 1.4324588846648112e-05
265 0.003320597345009446 0.05 1.4124529116088524e-05
266 0.003286386840045452 0.05 1.3834991477779113e-05
267 0.003259281860664487 0.05 1.3607720575237181e-05
268 0.0032329626847058535 0.05 1.3388839761319105e-05
269 0.0032146587036550045 0.05 1.3237662642495707e-05
270 0.0031854917760938406 0.05 1.2998538295505568e-05
271 0.0031436646822839975 0.05 1.2659425010497216e-05
272 0.003114770632237196 0.05 1.2427782166923862e-05
273 0.003089355304837227 0.05 1.2225797945575323e-05
274 0.0030608370434492826 0.05 1.2001123650406953e-05
275 0.0030420843977481127 0.05 1.1854522199428175e-05
276 0.0030055397655814886 0.05 1.1571415598155e-05
277 0.0029843226075172424 0.05 1.1408617865527049e-05
278 0.002957461401820183 0.05 1.1204170732526109e-05
279 0.0029337487649172544 0.05 1.1025222192984074e-05
280 0.0029079439118504524 0.05 1.0832121915882453e-05
