
  0%|                                                                                                                                                                                                                                                                                            | 0/10 [00:00<?, ?it/s]
0, 0.1364392638206482
1, 0.1364392638206482
2, 0.12979239225387573
3, 0.11694806069135666
4, 0.09893625974655151
5, 0.07756023854017258
6, 0.05549606308341026
7, 0.038770124316215515
8, 0.0270354263484478
9, 0.019472889602184296
10, 0.015018596313893795
11, 0.012625286355614662
12, 0.011442886665463448
13, 0.010874446481466293
14, 0.010546781122684479
15, 0.010251536034047604
16, 0.00988446082919836
17, 0.009414485655725002
18, 0.00885175820440054
19, 0.008223886601626873
20, 0.0075646452605724335
21, 0.006907608360052109
22, 0.006282858084887266
23, 0.005717657506465912
24, 0.005225562956184149
25, 0.0048121074214577675
26, 0.004473762586712837
27, 0.004202667623758316
28, 0.003987202420830727
29, 0.003812900511547923
30, 0.003665095893666148
31, 0.0035308438818901777
32, 0.0034005260095000267
33, 0.003266735468059778
34, 0.0031258752569556236
35, 0.002977150259539485
36, 0.0028215921483933926
37, 0.0026618773117661476
38, 0.0025013897102326155
39, 0.0023437952622771263
40, 0.0021929005160927773
41, 0.002051436807960272
42, 0.0019215745851397514
43, 0.0018043395830318332
44, 0.0016999293584376574
45, 0.0016077210893854499
46, 0.0015266144182533026
47, 0.0014547979226335883
48, 0.0013906771782785654
49, 0.001332438550889492
50, 0.001278660143725574
51, 0.0012283880496397614
52, 0.0011806513648480177
53, 0.0011352349538356066
54, 0.001091830083169043
55, 0.0010505930986255407
56, 0.001011628657579422
57, 0.0009750385652296245
58, 0.0009409445337951183
59, 0.0009093036642298102
60, 0.0008799730567261577
61, 0.0008526783203706145
62, 0.0008272104314528406
63, 0.0008034294005483389
64, 0.0007809828384779394
65, 0.0007597447256557643
66, 0.0007394945714622736
67, 0.0007201358093880117
68, 0.0007016160525381565
69, 0.0006839487468823791
70, 0.0006670925067737699
71, 0.0006511436076834798
72, 0.0006360902916640043
73, 0.0006219228962436318
74, 0.0006086159846745431
75, 0.0005961593124084175
76, 0.00058452517259866
77, 0.0005735972663387656
78, 0.0005633636028505862
79, 0.000553725054487586
80, 0.0005446176510304213
81, 0.0005359614733606577
82, 0.0005277428426779807
83, 0.000519909372087568
84, 0.0005124249728396535
85, 0.0005052776541560888
86, 0.0004984274273738265
87, 0.0004918968770653009
88, 0.0004856444429606199
89, 0.00047967740101739764
90, 0.00047397761954925954
91, 0.0004685015883296728
92, 0.00046328362077474594
93, 0.00045827165013179183
94, 0.00045348037383519113
95, 0.00044887926196679473
96, 0.00044445483945310116
97, 0.0004402160120662302
98, 0.00043613871093839407
99, 0.00043221708619967103
100, 0.00042843137634918094
101, 0.00042479229159653187
102, 0.0004212801286485046
103, 0.00041790155228227377
104, 0.0004146254505030811
105, 0.00041146751027554274
106, 0.00040840322617441416
107, 0.00040545727824792266
108, 0.00040260975947603583
109, 0.00039983491296879947
110, 0.00039715785533189774
111, 0.00039457203820347786
112, 0.0003920666058547795
113, 0.0003896536072716117
114, 0.0003873023670166731
115, 0.0003850500797852874
116, 0.0003828505286946893
117, 0.0003807225148193538
118, 0.00037866918137297034
119, 0.00037667443393729627
120, 0.0003747407754417509
121, 0.0003728763840626925
122, 0.00037105660885572433
123, 0.0003693022299557924
124, 0.00036760029615834355
125, 0.00036595595884136856
126, 0.00036435233778320253
127, 0.0003628205449786037
128, 0.0003613225999288261
129, 0.0003598587354645133
130, 0.00035846809623762965
131, 0.0003571059787645936
132, 0.00035579100949689746
133, 0.00035450569703243673
134, 0.0003532757982611656
135, 0.0003520876634865999
136, 0.00035091780591756105
137, 0.00034981369390152395
138, 0.0003487256763037294
139, 0.0003476795391179621
140, 0.0003466727794148028
141, 0.000345697597367689
142, 0.00034475233405828476
143, 0.00034383602906018496
144, 0.00034296372905373573
145, 0.0003421147121116519
146, 0.00034130370477214456
147, 0.00034051149850711226
148, 0.0003397523832973093
149, 0.00033902813447639346
150, 0.00033832405460998416
151, 0.0003376527165528387
152, 0.0003370066115166992
153, 0.0003363861469551921
154, 0.0003357846289873123
155, 0.00033521850127726793
156, 0.00033467053435742855
157, 0.0003341403789818287
158, 0.00033364916453137994
159, 0.0003331756161060184
160, 0.0003327218582853675
161, 0.00033228573738597333
162, 0.00033187540248036385
163, 0.00033147557405754924
164, 0.00033109611831605434
165, 0.00033074719249270856
166, 0.0003304117708466947
167, 0.0003300914540886879
168, 0.00032979933894239366
169, 0.00032951292814686894
170, 0.0003292507026344538
171, 0.00032899738289415836
172, 0.0003287699946667999
173, 0.0003285535494796932
174, 0.00032835244201123714
175, 0.00032817007740959525
176, 0.0003279867523815483
177, 0.0003278228105045855
178, 0.0003276744100730866
179, 0.00032753910636529326
180, 0.00032742039184086025
181, 0.00032730327802710235
182, 0.0003271946625318378
183, 0.0003271118039265275
184, 0.0003270292654633522
185, 0.0003269540029577911
186, 0.00032689020736142993
187, 0.00032683275640010834
188, 0.00032678100978955626
189, 0.00032674206886440516
190, 0.00032670964719727635
191, 0.0003266768471803516
192, 0.0003266530984546989
193, 0.0003266314452048391
194, 0.00032661642762832344
195, 0.00032660653232596815
196, 0.00032660079887136817
197, 0.0003265922423452139
198, 0.0003265910199843347
199, 0.00032658822601661086
0 2.458747625350952 0.05 7.744057655334473
1 2.3039662837982178 0.05 6.799749851226807
2 2.142239809036255 0.05 5.878640651702881
3 1.9422633647918701 0.05 4.832333564758301
4 1.6601296663284302 0.05 3.5304064750671387
5 1.259287714958191 0.05 2.0313773155212402
6 0.8231011629104614 0.05 0.8678550124168396
7 0.5880342125892639 0.05 0.44294100999832153
8 0.4834786057472229 0.05 0.2994299829006195
9 0.4001467823982239 0.05 0.2051064670085907
10 0.3427373766899109 0.05 0.15047475695610046
11 0.30008748173713684 0.05 0.11535502225160599
12 0.26755255460739136 0.05 0.0916977971792221
13 0.24193337559700012 0.05 0.07497772574424744
14 0.22105811536312103 0.05 0.06259702146053314
15 0.20382703840732574 0.05 0.05321869999170303
16 0.1894223392009735 0.05 0.04596244543790817
17 0.17719419300556183 0.05 0.04021977633237839
18 0.1666531264781952 0.05 0.035576868802309036
19 0.15744833648204803 0.05 0.03175535053014755
20 0.14928893744945526 0.05 0.028549332171678543
21 0.14199572801589966 0.05 0.025828026235103607
22 0.13539916276931763 0.05 0.02348402887582779
23 0.12939453125 0.05 0.02144729718565941
24 0.12390974909067154 0.05 0.0196676142513752
25 0.11887259781360626 0.05 0.018101070076227188
26 0.11423668265342712 0.05 0.01671675220131874
27 0.1099424660205841 0.05 0.015483589842915535
28 0.10595376044511795 0.05 0.014380483888089657
29 0.10224496573209763 0.05 0.013391357846558094
30 0.0987749919295311 0.05 0.012497832998633385
31 0.09553283452987671 0.05 0.01169084757566452
32 0.09248264133930206 0.05 0.010956231504678726
33 0.08959975093603134 0.05 0.01028381660580635
34 0.08688460290431976 0.05 0.009669997729361057
35 0.08430780470371246 0.05 0.009104922413825989
36 0.0818682387471199 0.05 0.008585619740188122
37 0.0795523077249527 0.05 0.008106740191578865
38 0.07734274864196777 0.05 0.007662666495889425
39 0.07523505389690399 0.05 0.00725072156637907
40 0.07322444021701813 0.05 0.006868356838822365
41 0.07129519432783127 0.05 0.006511202547699213
42 0.0694534182548523 0.05 0.006179139018058777
43 0.06767921894788742 0.05 0.00586747657507658
44 0.06598779559135437 0.05 0.005577865056693554
45 0.06435523182153702 0.05 0.005305280908942223
46 0.06278625875711441 0.05 0.005049750208854675
47 0.06127921864390373 0.05 0.0048102447763085365
48 0.05982925742864609 0.05 0.004585301969200373
49 0.05842623487114906 0.05 0.00437276903539896
50 0.05707230791449547 0.05 0.004172454122453928
51 0.055766865611076355 0.05 0.003983760252594948
52 0.05450629070401192 0.05 0.003805695567280054
53 0.053284525871276855 0.05 0.003636996727436781
54 0.05210813134908676 0.05 0.0034781773574650288
55 0.05096578598022461 0.05 0.003327347571030259
56 0.049862463027238846 0.05 0.003184844274073839
57 0.04879091680049896 0.05 0.0030494299717247486
58 0.0477532222867012 0.05 0.002921097679063678
59 0.04675522819161415 0.05 0.0028002774342894554
60 0.045775216072797775 0.05 0.0026841177605092525
61 0.04482753202319145 0.05 0.002574129030108452
62 0.04390929639339447 0.05 0.002469753846526146
63 0.0430193655192852 0.05 0.0023706569336354733
64 0.04214978590607643 0.05 0.0022757858969271183
65 0.04131167009472847 0.05 0.0021861812565475702
66 0.04049486666917801 0.05 0.0021005868911743164
67 0.03969742730259895 0.05 0.002018670318648219
68 0.03892143443226814 0.05 0.0019405209459364414
69 0.03817005082964897 0.05 0.0018663203809410334
70 0.03743889927864075 0.05 0.0017955059884116054
71 0.036725934594869614 0.05 0.001727771945297718
72 0.03603248670697212 0.05 0.0016631415346637368
73 0.035352498292922974 0.05 0.0016009616665542126
74 0.03469758480787277 0.05 0.001542194513604045
75 0.0340588316321373 0.05 0.0014859361108392477
76 0.03342869505286217 0.05 0.0014314611908048391
77 0.03282066062092781 0.05 0.0013798607978969812
78 0.032228149473667145 0.05 0.0013304895255714655
79 0.031646694988012314 0.05 0.0012829136103391647
80 0.031079700216650963 0.05 0.001237354939803481
81 0.030530225485563278 0.05 0.0011939899995923042
82 0.029994262382388115 0.05 0.0011524364817887545
83 0.029467683285474777 0.05 0.0011123274452984333
84 0.028958594426512718 0.05 0.0010742261074483395
85 0.028461378067731857 0.05 0.0010376540012657642
86 0.027970479801297188 0.05 0.0010021680500358343
87 0.0274944007396698 0.05 0.0009683430544100702
88 0.027029216289520264 0.05 0.0009358528768643737
89 0.02657107263803482 0.05 0.0009043965837918222
90 0.026132067665457726 0.05 0.0008747587562538683
91 0.025691932067275047 0.05 0.0008455400820821524
92 0.025272667407989502 0.05 0.0008181686280295253
93 0.024854391813278198 0.05 0.0007913107401691377
94 0.02444763295352459 0.05 0.0007656218949705362
95 0.024056289345026016 0.05 0.0007413066923618317
96 0.02366337925195694 0.05 0.0007172891637310386
97 0.023287704214453697 0.05 0.0006946948706172407
98 0.02291499637067318 0.05 0.0006726363208144903
99 0.022553132846951485 0.05 0.0006515600252896547
100 0.02219504490494728 0.05 0.0006310340249910951
101 0.021846700459718704 0.05 0.0006113817216828465
102 0.02150907553732395 0.05 0.000592630822211504
103 0.02117551490664482 0.05 0.0005743923829868436
104 0.02084977552294731 0.05 0.0005568567430600524
105 0.020528076216578484 0.05 0.0005398053908720613
106 0.02021852880716324 0.05 0.0005236484576016665
107 0.019912753254175186 0.05 0.0005079293623566628
108 0.019612668082118034 0.05 0.0004927357658743858
109 0.019318658858537674 0.05 0.00047807348892092705
110 0.019029507413506508 0.05 0.0004638695390895009
111 0.018747061491012573 0.05 0.0004502017400227487
112 0.01847049407660961 0.05 0.00043701642425730824
113 0.018199728801846504 0.05 0.00042429755558259785
114 0.017931969836354256 0.05 0.0004119046498090029
115 0.017673257738351822 0.05 0.00040010499651543796
116 0.017415344715118408 0.05 0.00038851238787174225
117 0.01716548763215542 0.05 0.0003774444339796901
118 0.016921808943152428 0.05 0.0003668042190838605
119 0.016678474843502045 0.05 0.0003563307982403785
120 0.016444290056824684 0.05 0.00034639445948414505
121 0.016211818903684616 0.05 0.00033666982199065387
122 0.01598397269845009 0.05 0.00032727301004342735
123 0.015760811045765877 0.05 0.0003181982901878655
124 0.01554257981479168 0.05 0.0003094474086537957
125 0.015323804691433907 0.05 0.00030079728458076715
126 0.015112979337573051 0.05 0.00029257748974487185
127 0.014906737022101879 0.05 0.0002846465213224292
128 0.014702890068292618 0.05 0.00027691476861946285
129 0.014502502046525478 0.05 0.0002694179711397737
130 0.014308846555650234 0.05 0.00026227079797536135
131 0.014115644618868828 0.05 0.00025523611111566424
132 0.013924936763942242 0.05 0.00024838600074872375
133 0.013739424757659435 0.05 0.00024181196931749582
134 0.013557870872318745 0.05 0.00023546353622805327
135 0.01337706483900547 0.05 0.00022922520292922854
136 0.013201520778238773 0.05 0.00022324855672195554
137 0.01302868127822876 0.05 0.00021744106197729707
138 0.012858608737587929 0.05 0.00021180130715947598
139 0.01269096601754427 0.05 0.00020631463848985732
140 0.012524710968136787 0.05 0.00020094451610930264
141 0.012365822680294514 0.05 0.00019587848510127515
142 0.012204795144498348 0.05 0.00019081024220213294
143 0.012050319463014603 0.05 0.00018601067131385207
144 0.011899019591510296 0.05 0.00018136901780962944
145 0.011743665672838688 0.05 0.00017666401981841773
146 0.011594932526350021 0.05 0.0001722174638416618
147 0.011449630372226238 0.05 0.0001679281995166093
148 0.011306168511509895 0.05 0.00016374635742977262
149 0.01116954255849123 0.05 0.00015981275646481663
150 0.011030392721295357 0.05 0.00015585569781251252
151 0.01089281402528286 0.05 0.0001519920479040593
152 0.010757850483059883 0.05 0.0001482489751651883
153 0.010623021051287651 0.05 0.00014455622294917703
154 0.010494508780539036 0.05 0.00014107984316069633
155 0.010367099195718765 0.05 0.0001376750587951392
156 0.010240225121378899 0.05 0.00013432587729766965
157 0.010114951990544796 0.05 0.0001310594379901886
158 0.009994089603424072 0.05 0.00012794614303857088
159 0.009871634654700756 0.05 0.00012482996680773795
160 0.009753197431564331 0.05 0.0001218526012962684
161 0.009639885276556015 0.05 0.00011903767881449312
162 0.009525551460683346 0.05 0.00011623072350630537
163 0.009410230442881584 0.05 0.00011343348160153255
164 0.0093025341629982 0.05 0.00011085192090831697
165 0.009192037396132946 0.05 0.0001082341477740556
166 0.009083528071641922 0.05 0.00010569387814030051
167 0.008974895812571049 0.05 0.00010318096610717475
168 0.008872216567397118 0.05 0.00010083352390211076
169 0.008770100772380829 0.05 9.852577932178974e-05
170 0.008668637834489346 0.05 9.625923121348023e-05
171 0.008567259646952152 0.05 9.402092837262899e-05
172 0.008472097106277943 0.05 9.194381709676236e-05
173 0.008373087272047997 0.05 8.980735583463684e-05
174 0.008277587592601776 0.05 8.77704587765038e-05
175 0.008183842524886131 0.05 8.579367568017915e-05
176 0.008091922849416733 0.05 8.387724665226415e-05
177 0.007998781278729439 0.05 8.195743430405855e-05
178 0.007909943349659443 0.05 8.014703053049743e-05
179 0.007822263985872269 0.05 7.838006422389299e-05
180 0.0077347825281322 0.05 7.663673022761941e-05
181 0.007648324593901634 0.05 7.49330356484279e-05
182 0.007561016827821732 0.05 7.323204044951126e-05
183 0.007476489525288343 0.05 7.160381937865168e-05
184 0.007397668901830912 0.05 7.010201079538092e-05
185 0.007314467802643776 0.05 6.853402010165155e-05
186 0.0072359489277005196 0.05 6.707051943521947e-05
187 0.007156912703067064 0.05 6.56133342999965e-05
188 0.0070771281607449055 0.05 6.415859388653189e-05
189 0.00700009148567915 0.05 6.27694244030863e-05
190 0.006923451088368893 0.05 6.140249024610966e-05
191 0.006850238423794508 0.05 6.0110745835117996e-05
192 0.006777136120945215 0.05 5.883464473299682e-05
193 0.006703665945678949 0.05 5.756591781391762e-05
194 0.006631381809711456 0.05 5.633116961689666e-05
195 0.006560936104506254 0.05 5.5140706535894424e-05
196 0.006492889020591974 0.05 5.400285590440035e-05
197 0.006422390695661306 0.05 5.283651262288913e-05
198 0.006355689372867346 0.05 5.174471880309284e-05
199 0.0062904576770961285 0.05 5.068800601293333e-05
200 0.00622220104560256 0.05 4.959395664627664e-05
201 0.006157491821795702 0.05 4.8567795602139086e-05
202 0.0060922130942344666 0.05 4.754346809932031e-05
203 0.00602932833135128 0.05 4.65670382254757e-05
204 0.0059672570787370205 0.05 4.561316382023506e-05
205 0.00590459443628788 0.05 4.4660220737569034e-05
206 0.005845575127750635 0.05 4.377188452053815e-05
207 0.005782283842563629 0.05 4.282916052034125e-05
208 0.0057219248265028 0.05 4.193966742604971e-05
209 0.005665025673806667 0.05 4.1109713492915034e-05
210 0.0056082396768033504 0.05 4.0289683965966105e-05
211 0.005552323535084724 0.05 3.949028177885339e-05
212 0.00549298757687211 0.05 3.8650752685498446e-05
213 0.005437679123133421 0.05 3.787632522289641e-05
214 0.005382734350860119 0.05 3.711475437739864e-05
215 0.005329630337655544 0.05 3.6386049032444134e-05
216 0.005274894181638956 0.05 3.56425043719355e-05
217 0.005223788786679506 0.05 3.495521377772093e-05
218 0.005171359982341528 0.05 3.42570710927248e-05
219 0.005121259950101376 0.05 3.359652328072116e-05
220 0.0050692129880189896 0.05 3.2917112548602745e-05
221 0.0050211697816848755 0.05 3.229613139410503e-05
222 0.004968229681253433 0.05 3.161869972245768e-05
223 0.004922427702695131 0.05 3.103840572293848e-05
224 0.004869758617132902 0.05 3.0377743314602412e-05
225 0.004823493771255016 0.05 2.9803286452079192e-05
226 0.004777101334184408 0.05 2.9232749511720613e-05
227 0.004729284439235926 0.05 2.8650454623857513e-05
228 0.004683875013142824 0.05 2.8102911528549157e-05
229 0.00463837618008256 0.05 2.7559586669667624e-05
230 0.004592639394104481 0.05 2.701875928323716e-05
231 0.0045487587340176105 0.05 2.6504920242587104e-05
232 0.00450285617262125 0.05 2.5972687581088394e-05
233 0.004463191144168377 0.05 2.5517121684970334e-05
234 0.0044213272631168365 0.05 2.5040673790499568e-05
235 0.004379722289741039 0.05 2.457162736391183e-05
236 0.004338250029832125 0.05 2.410847991995979e-05
237 0.004295447375625372 0.05 2.3635104298591614e-05
238 0.0042534577660262585 0.05 2.317527832929045e-05
239 0.004212742205709219 0.05 2.2733718651579693e-05
240 0.004171724896878004 0.05 2.2293179426924326e-05
241 0.004133009817451239 0.05 2.1881318389205262e-05
242 0.004095851443707943 0.05 2.1489635400939733e-05
243 0.004058720078319311 0.05 2.1101774109411053e-05
244 0.004018701612949371 0.05 2.0687699361587875e-05
245 0.00398008618503809 0.05 2.0292040062486194e-05
246 0.003946096636354923 0.05 1.994693411688786e-05
247 0.003908423241227865 0.05 1.956788582901936e-05
248 0.0038702634628862143 0.05 1.9187649741070345e-05
249 0.003837360069155693 0.05 1.886278550955467e-05
250 0.0038007134571671486 0.05 1.8504228137317114e-05
251 0.00376724055968225 0.05 1.817972952267155e-05
252 0.003730141557753086 0.05 1.7823433154262602e-05
253 0.0036988146603107452 0.05 1.7525315342936665e-05
254 0.0036650924012064934 0.05 1.7207214114023373e-05
255 0.0036302681546658278 0.05 1.6881775081856176e-05
256 0.0035961768589913845 0.05 1.65661949722562e-05
257 0.003563677193596959 0.05 1.6268120816675946e-05
258 0.003530300920829177 0.05 1.5964824342518114e-05
259 0.0035021547228097916 0.05 1.571127177157905e-05
260 0.003466811729595065 0.05 1.539576260256581e-05
261 0.0034355793613940477 0.05 1.5119612726266496e-05
262 0.0034078285098075867 0.05 1.4876341083436273e-05
263 0.003377622226253152 0.05 1.4613789062423166e-05
264 0.0033463044092059135 0.05 1.4344042938319035e-05
265 0.003316689981147647 0.05 1.409127980878111e-05
266 0.003287243191152811 0.05 1.3842176485923119e-05
267 0.00326365209184587 0.05 1.3644211321661714e-05
268 0.0032323976047337055 0.05 1.3384134035732131e-05
269 0.0032010178547352552 0.05 1.3125531040714122e-05
270 0.0031709191389381886 0.05 1.2879856512881815e-05
271 0.0031444907654076815 0.05 1.2666054317378439e-05
272 0.0031163408420979977 0.05 1.2440292266546749e-05
273 0.0030904451850801706 0.05 1.2234403584443498e-05
274 0.0030626109801232815 0.05 1.2015016181976534e-05
275 0.0030360384844243526 0.05 1.1807426744780969e-05
276 0.0030087570194154978 0.05 1.1596181138884276e-05
277 0.0029816708993166685 0.05 1.1388332495698705e-05
278 0.0029638551641255617 0.05 1.1252645890635904e-05
279 0.002930378308519721 0.05 1.0999881851603277e-05
280 0.0029090996831655502 0.05 1.0840713912330102e-05
