
  0%|                                                                                                                                                                                                                                                                                                           | 0/10 [00:00<?, ?it/s]
0, 0.1364392638206482
1, 0.1364392638206482
2, 0.12979243695735931
3, 0.11694806814193726
4, 0.09893602132797241
5, 0.07756032049655914
6, 0.05549612641334534
7, 0.03877318650484085
8, 0.02704547718167305
9, 0.019489752128720284
10, 0.015038171783089638
11, 0.012640580534934998
12, 0.011447678320109844
13, 0.010865172371268272
14, 0.010523687116801739
15, 0.010215498507022858
16, 0.00984138809144497
17, 0.009367085993289948
18, 0.00880519114434719
19, 0.008181027136743069
20, 0.007529771886765957
21, 0.006880424916744232
22, 0.006261959206312895
23, 0.005696973763406277
24, 0.005200965330004692
25, 0.00477802287787199
26, 0.00442542415112257
27, 0.004136861767619848
28, 0.003902155440300703
29, 0.0037090047262609005
30, 0.0035452647134661674
31, 0.003400760469958186
32, 0.0032658902928233147
33, 0.003134576603770256
34, 0.003003004938364029
35, 0.0028688586317002773
36, 0.00273211020976305
37, 0.002593505661934614
38, 0.0024548035580664873
39, 0.0023181363940238953
40, 0.0021859174594283104
41, 0.002059848513454199
42, 0.001941676251590252
43, 0.001832289039157331
44, 0.0017320968909189105
45, 0.001641367911361158
46, 0.001559514901600778
47, 0.0014860404189676046
48, 0.0014202644815668464
49, 0.0013612251495942473
50, 0.0013079396449029446
51, 0.001259675482288003
52, 0.0012156302109360695
53, 0.001175272511318326
54, 0.00113790447358042
55, 0.001103377202525735
56, 0.0010712778894230723
57, 0.0010414047865197062
58, 0.0010136039927601814
59, 0.0009876977419480681
60, 0.0009635761380195618
61, 0.0009412852814421058
62, 0.0009204837260767817
63, 0.0009013395756483078
64, 0.0008835953194648027
65, 0.0008672673138789833
66, 0.0008522329735569656
67, 0.00083835085388273
68, 0.0008256117580458522
69, 0.0008138510747812688
70, 0.0008030970930121839
71, 0.0007932486478239298
72, 0.0007841518963687122
73, 0.0007758483989164233
74, 0.0007682570139877498
75, 0.0007613060879521072
76, 0.0007549218717031181
77, 0.0007491293363273144
78, 0.0007438667817041278
79, 0.000739069189876318
80, 0.0007347386563196778
81, 0.0007308161584660411
82, 0.0007273408118635416
83, 0.0007242217543534935
84, 0.000721469521522522
85, 0.0007189440075308084
86, 0.000716832117177546
87, 0.0007149662706069648
88, 0.0007133403560146689
89, 0.0007119972724467516
90, 0.0007108370773494244
91, 0.0007098991191014647
92, 0.0007091113366186619
93, 0.0007084928802214563
94, 0.0007080048089846969
95, 0.0007076709298416972
96, 0.0007074241293594241
97, 0.000707261438947171
98, 0.0007071796571835876
99, 0.00070716324262321
0 2.41910457611084 0.05 7.6405229568481445
1 2.2590548992156982 0.05 6.662963390350342
2 2.091578245162964 0.05 5.711657524108887
3 1.8938114643096924 0.05 4.682603359222412
4 1.6141103506088257 0.05 3.4015769958496094
5 1.2362356185913086 0.05 1.9953373670578003
6 0.80454421043396 0.05 0.8451108336448669
7 0.5748995542526245 0.05 0.4315168559551239
8 0.4720691740512848 0.05 0.2909545302391052
9 0.3923039734363556 0.05 0.2009367048740387
10 0.33781424164772034 0.05 0.1489943414926529
11 0.2966800034046173 0.05 0.11491863429546356
12 0.26518192887306213 0.05 0.09181248396635056
13 0.2400745153427124 0.05 0.07524991780519485
14 0.21956178545951843 0.05 0.0629400908946991
15 0.20263183116912842 0.05 0.05360794812440872
16 0.18851839005947113 0.05 0.04640035703778267
17 0.17651806771755219 0.05 0.04068104922771454
18 0.16618776321411133 0.05 0.036058858036994934
19 0.15712274610996246 0.05 0.03223235160112381
20 0.14905838668346405 0.05 0.029008593410253525
21 0.14183461666107178 0.05 0.02626505307853222
22 0.13527996838092804 0.05 0.023893561214208603
23 0.129316508769989 0.05 0.02183341793715954
24 0.12385532259941101 0.05 0.020028259605169296
25 0.118844173848629 0.05 0.0184403695166111
26 0.1142117902636528 0.05 0.017030827701091766
27 0.10994284600019455 0.05 0.01578148454427719
28 0.10597900301218033 0.05 0.01466403529047966
29 0.10228624194860458 0.05 0.013659924268722534
30 0.09884610027074814 0.05 0.01275653950870037
31 0.09561348706483841 0.05 0.011935816146433353
32 0.09259441494941711 0.05 0.011193952523171902
33 0.08974193781614304 0.05 0.010514890775084496
34 0.08705182373523712 0.05 0.009893948212265968
35 0.08450009673833847 0.05 0.009322409518063068
36 0.08208192139863968 0.05 0.008796479552984238
37 0.07977847754955292 0.05 0.008309700526297092
38 0.07758074253797531 0.05 0.007858176715672016
39 0.07548841834068298 0.05 0.0074400268495082855
40 0.07349007576704025 0.05 0.007051332853734493
41 0.07156945019960403 0.05 0.006687583401799202
42 0.06972929835319519 0.05 0.006348110269755125
43 0.06795862317085266 0.05 0.00602980051189661
44 0.06626398861408234 0.05 0.00573283014819026
45 0.0646299347281456 0.05 0.005453574936836958
46 0.06305313855409622 0.05 0.005190715659409761
47 0.06153814122080803 0.05 0.004944275598973036
48 0.06007472798228264 0.05 0.00471191480755806
49 0.058663226664066315 0.05 0.0044930968433618546
50 0.05729363486170769 0.05 0.004285747185349464
51 0.05597340315580368 0.05 0.004090508446097374
52 0.05469702184200287 0.05 0.0039060807321220636
53 0.05345919728279114 0.05 0.003731287783011794
54 0.052260614931583405 0.05 0.003565848572179675
55 0.05109940096735954 0.05 0.0034091449342668056
56 0.049976058304309845 0.05 0.0032609030604362488
57 0.048884108662605286 0.05 0.0031199613586068153
58 0.04782755672931671 0.05 0.0029865531250834465
59 0.046807996928691864 0.05 0.0028605794068425894
60 0.04580775275826454 0.05 0.002739629242569208
61 0.04484257474541664 0.05 0.002625396940857172
62 0.043899066746234894 0.05 0.0025160801596939564
63 0.0429919995367527 0.05 0.0024131769314408302
64 0.042105987668037415 0.05 0.002314736833795905
65 0.04124435409903526 0.05 0.002220971044152975
66 0.040408484637737274 0.05 0.0021318618673831224
67 0.03959699347615242 0.05 0.0020470963791012764
68 0.038805097341537476 0.05 0.0019660359248518944
69 0.038031112402677536 0.05 0.0018883907468989491
70 0.03728748857975006 0.05 0.0018152657430619001
71 0.036554981023073196 0.05 0.0017446448327973485
72 0.03584931418299675 0.05 0.0016779366414994001
73 0.03515681251883507 0.05 0.0016137375496327877
74 0.03448372706770897 0.05 0.0015525382477790117
75 0.033831123262643814 0.05 0.001494330819696188
76 0.03319105505943298 0.05 0.0014383215457201004
77 0.03257100656628609 0.05 0.001385084236972034
78 0.0319659486413002 0.05 0.001334102125838399
79 0.03137607499957085 0.05 0.0012853194493800402
80 0.03080214373767376 0.05 0.0012387273600324988
81 0.030239148065447807 0.05 0.0011938586831092834
82 0.029694464057683945 0.05 0.0011512372875586152
83 0.029163317754864693 0.05 0.001110421260818839
84 0.028641000390052795 0.05 0.0010710018686950207
85 0.028132591396570206 0.05 0.0010333164827898145
86 0.027638647705316544 0.05 0.0009973497362807393
87 0.027153676375746727 0.05 0.0009626559913158417
88 0.026682382449507713 0.05 0.0009295291965827346
89 0.026222413405776024 0.05 0.0008977577672339976
90 0.025771096348762512 0.05 0.0008671209216117859
91 0.025334598496556282 0.05 0.0008379959617741406
92 0.02490377426147461 0.05 0.0008097373647615314
93 0.024484721943736076 0.05 0.0007827160297892988
94 0.024078574031591415 0.05 0.0007569642621092498
95 0.023677200078964233 0.05 0.0007319384021684527
96 0.023285076022148132 0.05 0.0007078954949975014
97 0.02290470153093338 0.05 0.0006849566707387567
98 0.022531483322381973 0.05 0.0006628166302107275
99 0.02216184511780739 0.05 0.0006412474904209375
100 0.02180643379688263 0.05 0.0006208449485711753
101 0.021455667912960052 0.05 0.0006010325159877539
102 0.02111758105456829 0.05 0.0005822402890771627
103 0.020785421133041382 0.05 0.0005640680901706219
104 0.020454490557312965 0.05 0.0005462496774271131
105 0.020135153084993362 0.05 0.0005293266149237752
106 0.019820604473352432 0.05 0.000512917700689286
107 0.019516268745064735 0.05 0.0004972874303348362
108 0.019212553277611732 0.05 0.0004819301248062402
109 0.018918268382549286 0.05 0.0004672794311773032
110 0.018630409613251686 0.05 0.00045316744945012033
111 0.01834751106798649 0.05 0.0004395093710627407
112 0.018076634034514427 0.05 0.0004266276373527944
113 0.017804019153118134 0.05 0.000413856643717736
114 0.017536373808979988 0.05 0.0004015072772745043
115 0.017279481515288353 0.05 0.0003898299764841795
116 0.017019975930452347 0.05 0.0003782088460866362
117 0.01677522249519825 0.05 0.0003674095496535301
118 0.01653102971613407 0.05 0.00035679081338457763
119 0.016290953382849693 0.05 0.00034650290035642684
120 0.016057295724749565 0.05 0.00033663451904430985
121 0.01582556590437889 0.05 0.00032698834547773004
122 0.015600854530930519 0.05 0.0003177683684043586
123 0.01537778414785862 0.05 0.0003087460354436189
124 0.015157163143157959 0.05 0.00029995059594511986
125 0.014944914728403091 0.05 0.0002916088851634413
126 0.014736112207174301 0.05 0.0002835173800121993
127 0.014532431960105896 0.05 0.00027573411352932453
128 0.01432977057993412 0.05 0.0002680972684174776
129 0.014129692688584328 0.05 0.00026066298596560955
130 0.013939766213297844 0.05 0.00025370257208123803
131 0.013745537027716637 0.05 0.0002466819132678211
132 0.0135593106970191 0.05 0.00024004303850233555
133 0.013376855291426182 0.05 0.00023362637148238719
134 0.013193433173000813 0.05 0.0002272634010296315
135 0.013015090487897396 0.05 0.0002211608225479722
136 0.012843861244618893 0.05 0.00021537984139285982
137 0.012669713236391544 0.05 0.00020957886590622365
138 0.012503599748015404 0.05 0.00020411926379892975
139 0.012338058091700077 0.05 0.00019875014550052583
140 0.012172493152320385 0.05 0.0001934518659254536
141 0.012015768326818943 0.05 0.00018850242486223578
142 0.011859550140798092 0.05 0.00018363284470979124
143 0.011704140342772007 0.05 0.0001788516528904438
144 0.011555736884474754 0.05 0.00017434485198464245
145 0.011402053758502007 0.05 0.00016973835590761155
146 0.011262694373726845 0.05 0.00016561453230679035
147 0.011112060397863388 0.05 0.00016121412045322359
148 0.010974225588142872 0.05 0.0001572394830873236
149 0.010831154882907867 0.05 0.00015316635835915804
150 0.01069740578532219 0.05 0.00014940695837140083
151 0.010560831055045128 0.05 0.00014561631542164832
152 0.010427677072584629 0.05 0.0001419675099896267
153 0.010296017862856388 0.05 0.0001384052011417225
154 0.010173666290938854 0.05 0.0001351352984784171
155 0.010046200826764107 0.05 0.00013177032815292478
156 0.009923162870109081 0.05 0.00012856243120040745
157 0.009795489721000195 0.05 0.00012527551734820008
158 0.009676484391093254 0.05 0.00012225007230881602
159 0.00956090446561575 0.05 0.00011934709618799388
160 0.009440681897103786 0.05 0.00011636453564278781
161 0.009328817017376423 0.05 0.00011362318764440715
162 0.009213651530444622 0.05 0.0001108351134462282
163 0.009102842770516872 0.05 0.00010818522423505783
164 0.008993521332740784 0.05 0.0001056023029377684
165 0.008888822980225086 0.05 0.00010315785766579211
166 0.008782082237303257 0.05 0.00010069522249978036
167 0.008675536140799522 0.05 9.826671885093674e-05
168 0.008572226390242577 0.05 9.594031143933535e-05
169 0.008475973270833492 0.05 9.379787661600858e-05
170 0.008382891304790974 0.05 9.174904698738828e-05
171 0.008275874890387058 0.05 8.942144631873816e-05
172 0.008178782649338245 0.05 8.733557478990406e-05
173 0.008083881810307503 0.05 8.53205710882321e-05
174 0.007991380989551544 0.05 8.337917097378522e-05
175 0.007895629853010178 0.05 8.13930673757568e-05
176 0.007802518084645271 0.05 7.948467100504786e-05
177 0.007720707915723324 0.05 7.782661123201251e-05
178 0.007625359110534191 0.05 7.591619214508682e-05
179 0.007541972678154707 0.05 7.426492811646312e-05
180 0.0074562132358551025 0.05 7.258560799527913e-05
181 0.0073683480732142925 0.05 7.088496204232797e-05
182 0.007284162100404501 0.05 6.927445065230131e-05
183 0.007210375741124153 0.05 6.787809252273291e-05
184 0.007123781368136406 0.05 6.625750393141061e-05
185 0.007044191937893629 0.05 6.478525756392628e-05
186 0.0069634392857551575 0.05 6.33084200671874e-05
187 0.006890133023262024 0.05 6.198250048328191e-05
188 0.00680964533239603 0.05 6.054285040590912e-05
189 0.006741128861904144 0.05 5.933065040153451e-05
190 0.006659252569079399 0.05 5.78981707803905e-05
191 0.006593857426196337 0.05 5.676660657627508e-05
192 0.006515346933156252 0.05 5.542286453419365e-05
193 0.006444800179451704 0.05 5.422914546215907e-05
194 0.0063744839280843735 0.05 5.30522593180649e-05
195 0.006305836606770754 0.05 5.1915769290644675e-05
196 0.006244818679988384 0.05 5.091590719530359e-05
197 0.0061676823534071445 0.05 4.966584310750477e-05
198 0.0061013223603367805 0.05 4.860285480390303e-05
199 0.006035173311829567 0.05 4.7554691263940185e-05
200 0.005970998201519251 0.05 4.654872100218199e-05
201 0.0059073446318507195 0.05 4.5561544538941234e-05
202 0.005851131398230791 0.05 4.469856503419578e-05
203 0.005782727152109146 0.05 4.365954373497516e-05
204 0.005721885245293379 0.05 4.274567618267611e-05
205 0.005662555806338787 0.05 4.186382284387946e-05
206 0.005599394906312227 0.05 4.093511961400509e-05
207 0.005543835926800966 0.05 4.012681165477261e-05
208 0.005484605208039284 0.05 3.9273953007068485e-05
209 0.005432077217847109 0.05 3.852527152048424e-05
210 0.0053710960783064365 0.05 3.766515146708116e-05
211 0.005319445393979549 0.05 3.6944224120816216e-05
212 0.005258840508759022 0.05 3.610720159485936e-05
213 0.005206639878451824 0.05 3.539393946994096e-05
214 0.005149421747773886 0.05 3.462029417278245e-05
215 0.0051008849404752254 0.05 3.3970733056776226e-05
216 0.005044154357165098 0.05 3.321930853417143e-05
217 0.004992025904357433 0.05 3.2536248909309506e-05
218 0.004940049722790718 0.05 3.186225512763485e-05
219 0.004891398828476667 0.05 3.1237766961567104e-05
220 0.0048406170681118965 0.05 3.0592524126404896e-05
221 0.004793121479451656 0.05 2.9995126169524156e-05
222 0.004744085483253002 0.05 2.9384540539467707e-05
223 0.0046982415951788425 0.05 2.8819373255828395e-05
224 0.0046484265476465225 0.05 2.8211474273120984e-05
225 0.004603615961968899 0.05 2.7670183044392616e-05
226 0.004559942986816168 0.05 2.714767470024526e-05
227 0.004511517006903887 0.05 2.6574129151413217e-05
228 0.004470952320843935 0.05 2.6098401576746255e-05
229 0.004424707498401403 0.05 2.5561304937582463e-05
230 0.004381091799587011 0.05 2.505986049072817e-05
231 0.004333666060119867 0.05 2.4520242732251063e-05
232 0.004295244347304106 0.05 2.408737964287866e-05
233 0.004251317586749792 0.05 2.3597225663252175e-05
234 0.004206654615700245 0.05 2.3104021238395944e-05
235 0.004169902298599482 0.05 2.2702079149894416e-05
236 0.00412682443857193 0.05 2.2235448341234587e-05
237 0.00408254936337471 0.05 2.1760895833722316e-05
238 0.004042085260152817 0.05 2.1331667085178196e-05
239 0.004015517886728048 0.05 2.105217572534457e-05
240 0.003968487493693829 0.05 2.0561928977258503e-05
241 0.003929411992430687 0.05 2.0159000996500254e-05
242 0.003893686458468437 0.05 1.979410444619134e-05
243 0.0038525001145899296 0.05 1.937756132974755e-05
244 0.0038168856408447027 0.05 1.902094663819298e-05
245 0.0037795936223119497 0.05 1.8651084246812388e-05
246 0.003743658773601055 0.05 1.8298118448001333e-05
247 0.0037083260249346495 0.05 1.7954351278604008e-05
248 0.0036730882711708546 0.05 1.7614755051909015e-05
249 0.00363895739428699 0.05 1.7288915842073038e-05
250 0.0036033480428159237 0.05 1.6952208170550875e-05
251 0.003571067238226533 0.05 1.6649837561999448e-05
252 0.0035362690687179565 0.05 1.6326928744092584e-05
253 0.003502064850181341 0.05 1.6012614651117474e-05
254 0.0034711372572928667 0.05 1.5731038729427382e-05
255 0.0034347758628427982 0.05 1.5403189536300488e-05
256 0.003402981674298644 0.05 1.5119348972802982e-05
257 0.0033733085729181767 0.05 1.4856826055620331e-05
258 0.003342665499076247 0.05 1.4588133126380853e-05
259 0.0033103975001722574 0.05 1.4307841411209665e-05
260 0.0032797185704112053 0.05 1.4043876944924705e-05
261 0.0032487984281033278 0.05 1.3780321751255542e-05
262 0.0032200803980231285 0.05 1.353777406620793e-05
263 0.0031890820246189833 0.05 1.3278384358272888e-05
264 0.0031606878619641066 0.05 1.3042987120570615e-05
265 0.003130798228085041 0.05 1.279746720683761e-05
266 0.0031008729711174965 0.05 1.2553990018204786e-05
267 0.0030714303720742464 0.05 1.2316722859395668e-05
268 0.003053057938814163 0.05 1.2169813089712989e-05
269 0.0030210064724087715 0.05 1.1915635695913807e-05
270 0.0030022189021110535 0.05 1.1767888281610794e-05
271 0.0029643510933965445 0.05 1.1472897313069552e-05
272 0.0029392410069704056 0.05 1.1279353202553466e-05
273 0.002914801239967346 0.05 1.1092559361713938e-05
274 0.0028837942518293858 0.05 1.0857814231712837e-05
275 0.0028572462033480406 0.05 1.0658821338438429e-05
276 0.002833779202774167 0.05 1.0484454833203927e-05
277 0.002806793199852109 0.05 1.028571932693012e-05
278 0.002784297103062272 0.05 1.0121502782567404e-05
279 0.002756051952019334 0.05 9.917190254782327e-06
280 0.0027373156044632196 0.05 9.782809684111271e-06
281 0.002708884421736002 0.05 9.580646292306483e-06
282 0.002682622754946351 0.05 9.395786037202924e-06
283 0.0026664352044463158 0.05 9.282734026783146e-06
284 0.0026386233512312174 0.05 9.090099410968833e-06
285 0.002613676246255636 0.05 8.919027095544152e-06
286 0.0025941904168576 0.05 8.786533726379275e-06
287 0.0025687264278531075 0.05 8.614886610303074e-06
288 0.002545811701565981 0.05 8.461871402687393e-06
289 0.002527234610170126 0.05 8.338827683473937e-06
290 0.0025008907541632652 0.05 8.165885446942411e-06
291 0.0024802093394100666 0.05 8.031386641960125e-06
292 0.0024569907691329718 0.05 7.881717465352267e-06
293 0.0024374322965741158 0.05 7.756734703434631e-06
294 0.002417026087641716 0.05 7.627400918863714e-06
295 0.002397868549451232 0.05 7.5069701779284514e-06
296 0.0023731805849820375 0.05 7.353183264058316e-06
297 0.002354223979637027 0.05 7.236180863401387e-06
298 0.0023327418603003025 0.05 7.104725227691233e-06
299 0.002314048120751977 0.05 6.991312147874851e-06
300 0.0022964412346482277 0.05 6.885326456540497e-06
301 0.0022741330321878195 0.05 6.752205081284046e-06
302 0.0022562022786587477 0.05 6.6461470851209015e-06
303 0.0022354854736477137 0.05 6.524655418616021e-06
304 0.002216255757957697 0.05 6.412888069462497e-06
305 0.0022018838208168745 0.05 6.329983989417087e-06
306 0.0021823353599756956 0.05 6.218087946763262e-06
307 0.0021615761797875166 0.05 6.100352948124055e-06
308 0.0021457176189869642 0.05 6.011169261910254e-06
309 0.0021261689253151417 0.05 5.902138582314365e-06
310 0.002104132669046521 0.05 5.78042909182841e-06
311 0.002089503686875105 0.05 5.7003312576853205e-06
312 0.002072485163807869 0.05 5.6078542911564e-06
313 0.0020569730550050735 0.05 5.5242212511075195e-06
314 0.0020409878343343735 0.05 5.438694188342197e-06
315 0.0020226736087352037 0.05 5.341527867130935e-06
316 0.0020042150281369686 0.05 5.244480234978255e-06
317 0.001989085227251053 0.05 5.165597940504085e-06
318 0.0019710406195372343 0.05 5.072300155006815e-06
319 0.001954308245331049 0.05 4.9865475375554524e-06
320 0.0019402294419705868 0.05 4.9149603000842035e-06
321 0.001923018484376371 0.05 4.828149940294679e-06
322 0.001907960744574666 0.05 4.752834684040863e-06
323 0.0018914659740403295 0.05 4.671011538448511e-06
324 0.001877238624729216 0.05 4.601006367010996e-06
325 0.0018616508459672332 0.05 4.5249144022818655e-06
326 0.0018445696914568543 0.05 4.4422604332794435e-06
327 0.0018395337974652648 0.05 4.418037860887125e-06
328 0.0018328492296859622 0.05 4.385987267596647e-06
329 0.001806597225368023 0.05 4.261245521774981e-06
330 0.0017867276910692453 0.05 4.168027771811467e-06
331 0.0017732186242938042 0.05 4.105238986085169e-06
332 0.0017575114034116268 0.05 4.032832293887623e-06
