
  0%|                                                                                                                                                                                                                                                                                            | 0/10 [00:00<?, ?it/s]
0, 0.1364392638206482
1, 0.1364392638206482
2, 0.1297922432422638
3, 0.11694799363613129
4, 0.09893609583377838
5, 0.07756029069423676
6, 0.0554962083697319
7, 0.038770150393247604
8, 0.027035348117351532
9, 0.019472917541861534
10, 0.015018637292087078
11, 0.012625312432646751
12, 0.011442884802818298
13, 0.010874542407691479
14, 0.010546947829425335
15, 0.010251503437757492
16, 0.00988454557955265
17, 0.009414583444595337
18, 0.008851728402078152
19, 0.00822385773062706
20, 0.007564634084701538
21, 0.006907416041940451
22, 0.006282719783484936
23, 0.005717631429433823
24, 0.005225486122071743
25, 0.004812003578990698
26, 0.004473681561648846
27, 0.004202646669000387
28, 0.003987221512943506
29, 0.003812823910266161
30, 0.0036650127731263638
31, 0.003530830843374133
32, 0.0034004920162260532
33, 0.0032666537445038557
34, 0.0031258377712219954
35, 0.0029770988039672375
36, 0.0028215020429342985
37, 0.0026618321426212788
38, 0.0025013440754264593
39, 0.002343770582228899
40, 0.0021928581409156322
41, 0.0020514260977506638
42, 0.0019215370994061232
43, 0.0018043057061731815
44, 0.0016999029321596026
45, 0.0016077053733170033
46, 0.0015265976544469595
47, 0.0014547844184562564
48, 0.0013906359672546387
49, 0.0013324402971193194
50, 0.0012786831939592957
51, 0.001228369539603591
52, 0.0011806373950093985
53, 0.001135244034230709
54, 0.0010918139014393091
55, 0.001050582155585289
56, 0.0010116209741681814
57, 0.0009750485187396407
58, 0.0009409596095792949
59, 0.0009093047119677067
60, 0.0008799598435871303
61, 0.0008526674355380237
62, 0.0008272090344689786
63, 0.0008034153142943978
64, 0.0007809863891452551
65, 0.0007597272051498294
66, 0.0007394851418212056
67, 0.0007201016414910555
68, 0.0007016132585704327
69, 0.00068394944537431
70, 0.000667076266836375
71, 0.0006511401734314859
72, 0.0006360819679684937
73, 0.0006219203351065516
74, 0.0006086176144890487
75, 0.0005961434217169881
76, 0.0005845122504979372
77, 0.0005736029124818742
78, 0.0005633512046188116
79, 0.0005537158576771617
80, 0.0005446145078167319
81, 0.0005359598435461521
82, 0.000527748663444072
83, 0.0005199075676500797
84, 0.00051241455366835
85, 0.0005052813212387264
86, 0.0004984188126400113
87, 0.0004918946651741862
88, 0.0004856449959333986
89, 0.0004796716966666281
90, 0.0004739714495372027
91, 0.00046850135549902916
92, 0.00046327183372341096
93, 0.0004582791298162192
94, 0.00045347202103585005
95, 0.00044887917465530336
96, 0.00044445658568292856
97, 0.0004402143822517246
98, 0.0004361297469586134
99, 0.0004322116437833756
100, 0.00042841973481699824
101, 0.0004247816978022456
102, 0.0004212772473692894
103, 0.0004178878152742982
104, 0.0004146173596382141
105, 0.0004114593320991844
106, 0.00040839772555045784
107, 0.00040545681258663535
108, 0.0004026024544145912
109, 0.00039982618181966245
110, 0.0003971523547079414
111, 0.0003945731441490352
112, 0.0003920630260836333
113, 0.00038964225677773356
114, 0.00038729512016288936
115, 0.0003850344510283321
116, 0.0003828415065072477
117, 0.0003807139291893691
118, 0.0003786602756008506
119, 0.0003766670706681907
120, 0.0003747372829820961
121, 0.000372865644749254
122, 0.00037105288356542587
123, 0.00036929509951733053
124, 0.00036760250804945827
125, 0.0003659510693978518
126, 0.00036434255889616907
127, 0.00036281615030020475
128, 0.00036131692468188703
129, 0.0003598528855945915
130, 0.0003584621590562165
131, 0.00035709384246729314
132, 0.00035577762173488736
133, 0.00035449591814540327
134, 0.00035326642682775855
135, 0.0003520749742165208
136, 0.00035091052995994687
137, 0.0003497992584016174
138, 0.0003487146459519863
139, 0.0003476672281976789
140, 0.0003466688212938607
141, 0.00034569084527902305
142, 0.0003447490744292736
143, 0.0003438323619775474
144, 0.0003429556672926992
145, 0.00034210499143227935
146, 0.0003412968944758177
147, 0.00034050445538014174
148, 0.0003397456312086433
149, 0.00033902074210345745
150, 0.00033831410109996796
151, 0.00033764279214665294
152, 0.0003369917394593358
153, 0.0003363765717949718
154, 0.0003357799141667783
155, 0.00033520685974508524
156, 0.0003346678277011961
157, 0.00033413583878427744
158, 0.0003336368245072663
159, 0.00033316141343675554
160, 0.0003327114973217249
161, 0.00033227255335077643
162, 0.0003318588132970035
163, 0.0003314631467219442
164, 0.00033109448850154877
165, 0.0003307355218566954
166, 0.0003303982666693628
167, 0.0003300838579889387
168, 0.00032978609669953585
169, 0.00032950087916105986
170, 0.0003292353358119726
171, 0.00032898850622586906
172, 0.0003287559957243502
173, 0.00032854819437488914
174, 0.000328334717778489
175, 0.0003281557001173496
176, 0.00032797217136248946
177, 0.000327809015288949
178, 0.0003276705974712968
179, 0.000327528192428872
180, 0.00032740761525928974
181, 0.00032728875521570444
182, 0.000327192188706249
183, 0.00032710260711610317
184, 0.00032701482996344566
185, 0.0003269449225626886
186, 0.00032688313513062894
187, 0.00032682332675904036
188, 0.00032677571289241314
189, 0.00032672297675162554
190, 0.00032669687061570585
191, 0.00032666799961589277
192, 0.0003266380517743528
193, 0.0003266188723500818
194, 0.0003266138955950737
195, 0.00032659395947121084
196, 0.0003265872073825449
197, 0.00032658313284628093
198, 0.00032657600240781903
199, 0.00032657827250659466
0 2.4587504863739014 0.05 7.744034767150879
1 2.303973436355591 0.05 6.79975700378418
2 2.142242670059204 0.05 5.87862491607666
3 1.9422450065612793 0.05 4.832217693328857
4 1.6601184606552124 0.05 3.5303401947021484
5 1.259297490119934 0.05 2.031398057937622
6 0.8230880498886108 0.05 0.8678227663040161
7 0.58805912733078 0.05 0.4429762363433838
8 0.4834924340248108 0.05 0.2994454801082611
9 0.40016523003578186 0.05 0.20512431859970093
10 0.34272873401641846 0.05 0.15046635270118713
11 0.30009299516677856 0.05 0.1153586208820343
12 0.26755666732788086 0.05 0.09170012921094894
13 0.2419111281633377 0.05 0.0749635398387909
14 0.2210596650838852 0.05 0.06259756535291672
15 0.20384018123149872 0.05 0.053225286304950714
16 0.18942968547344208 0.05 0.0459657683968544
17 0.1771935224533081 0.05 0.0402192659676075
18 0.1666611135005951 0.05 0.03558008372783661
19 0.15745224058628082 0.05 0.03175675496459007
20 0.14929638803005219 0.05 0.02855203114449978
21 0.1419958770275116 0.05 0.02582794427871704
22 0.13539931178092957 0.05 0.023483961820602417
23 0.12939605116844177 0.05 0.021447688341140747
24 0.12391241639852524 0.05 0.019668355584144592
25 0.11887770891189575 0.05 0.018102530390024185
26 0.11423326283693314 0.05 0.01671566069126129
27 0.1099417582154274 0.05 0.015483308583498001
28 0.10595472157001495 0.05 0.014380666427314281
29 0.10224941372871399 0.05 0.013392450287938118
30 0.09877981245517731 0.05 0.012498985975980759
31 0.09552924335002899 0.05 0.011689906939864159
32 0.09248097985982895 0.05 0.010955778881907463
33 0.08959701657295227 0.05 0.010283134877681732
34 0.08688770979642868 0.05 0.009670638479292393
35 0.08430563658475876 0.05 0.009104406461119652
36 0.08187520503997803 0.05 0.008587034419178963
37 0.07955276966094971 0.05 0.008106792345643044
38 0.07734186202287674 0.05 0.0076624490320682526
39 0.07523321360349655 0.05 0.007250327616930008
40 0.07322065532207489 0.05 0.006867610849440098
41 0.07129316031932831 0.05 0.006510797422379255
42 0.06945709884166718 0.05 0.00617976114153862
43 0.06768275052309036 0.05 0.00586805772036314
44 0.06598574668169022 0.05 0.005577488802373409
45 0.06435494124889374 0.05 0.005305205471813679
46 0.0627909004688263 0.05 0.005050470121204853
47 0.06128108501434326 0.05 0.0048105125315487385
48 0.05982587859034538 0.05 0.0045847599394619465
49 0.05842564254999161 0.05 0.004372657276690006
50 0.0570731945335865 0.05 0.004172561690211296
51 0.0557648129761219 0.05 0.003983446396887302
52 0.05450792610645294 0.05 0.0038059032522141933
53 0.05328486114740372 0.05 0.0036370232701301575
54 0.05210751295089722 0.05 0.003478076308965683
55 0.05096800997853279 0.05 0.0033276197500526905
56 0.049861662089824677 0.05 0.0031847248319536448
57 0.048793304711580276 0.05 0.0030497126281261444
58 0.04775752127170563 0.05 0.0029216082766652107
59 0.04675103724002838 0.05 0.0027997607830911875
60 0.04577496647834778 0.05 0.0026840739883482456
61 0.044825732707977295 0.05 0.0025739092379808426
62 0.04391035810112953 0.05 0.0024698602501302958
63 0.0430157445371151 0.05 0.002370245521888137
64 0.042152244597673416 0.05 0.0022760394494980574
65 0.04130874201655388 0.05 0.0021858601830899715
66 0.04049371927976608 0.05 0.0021004569716751575
67 0.03969765827059746 0.05 0.0020186835899949074
68 0.03892168402671814 0.05 0.001940535963512957
69 0.03817198425531387 0.05 0.0018664996605366468
70 0.03743576258420944 0.05 0.0017951957415789366
71 0.036725711077451706 0.05 0.0017277419101446867
72 0.0360322929918766 0.05 0.0016631146427243948
73 0.035355739295482635 0.05 0.0016012468840926886
74 0.034698233008384705 0.05 0.0015422443393617868
75 0.03405507653951645 0.05 0.0014856008347123861
76 0.03343387693166733 0.05 0.0014318973990157247
77 0.032820433378219604 0.05 0.001379834720864892
78 0.03222648426890373 0.05 0.0013303450541570783
79 0.03164800629019737 0.05 0.001283013029024005
80 0.031081542372703552 0.05 0.0012374952202662826
81 0.030530620366334915 0.05 0.0011940147960558534
82 0.029995279386639595 0.05 0.0011525085428729653
83 0.02947394736111164 0.05 0.0011127947364002466
84 0.02895851619541645 0.05 0.0010742144659161568
85 0.02845701575279236 0.05 0.001037330599501729
86 0.027968287467956543 0.05 0.0010020056506618857
87 0.027489978820085526 0.05 0.0009680264629423618
88 0.027028707787394524 0.05 0.0009358128299936652
89 0.026569267734885216 0.05 0.0009042688179761171
90 0.02612747624516487 0.05 0.0008744467049837112
91 0.025692200288176537 0.05 0.0008455534116365016
92 0.025269130244851112 0.05 0.0008179352735169232
93 0.024855434894561768 0.05 0.0007913729059509933
94 0.024449776858091354 0.05 0.0007657522219233215
95 0.02405584417283535 0.05 0.0007412753766402602
96 0.02366422675549984 0.05 0.000717336661182344
97 0.023288274183869362 0.05 0.0006947251968085766
98 0.022915177047252655 0.05 0.0006726433057337999
99 0.022551270201802254 0.05 0.0006514489650726318
tuning, 0, 0.0003565263468772173
tuning, 1, 0.00034699178650043905
tuning, 2, 0.00036752852611243725
tuning, 3, 0.00038445121026597917
tuning, 4, 0.00033844675635918975
tuning, 5, 0.00034529343247413635
tuning, 6, 0.0003168160328641534
tuning, 7, 0.0003218964848201722
tuning, 8, 0.00030440487898886204
tuning, 9, 0.0002976185060106218
tuning, 10, 0.000300292216707021
tuning, 11, 0.000277080136584118
tuning, 12, 0.00028324476443231106
tuning, 13, 0.00028304540319368243
tuning, 14, 0.0002575889811851084
tuning, 15, 0.0002570532960817218
tuning, 16, 0.0002581051376182586
tuning, 17, 0.00024220568593591452
tuning, 18, 0.00024205567024182528
tuning, 19, 0.00024157243024092168
tuning, 20, 0.00023210453218780458
tuning, 21, 0.0002300328342244029
tuning, 22, 0.00022715327213518322
tuning, 23, 0.00022210556198842824
tuning, 24, 0.0002177865244448185
tuning, 25, 0.00021340636885724962
tuning, 26, 0.00021286953415255994
tuning, 27, 0.00020745517394971102
tuning, 28, 0.00020226712513249367
tuning, 29, 0.00020334094006102532
tuning, 30, 0.00019821057503577322
tuning, 31, 0.00019332594820298254
tuning, 32, 0.0001925799297168851
tuning, 33, 0.00018957583233714104
tuning, 34, 0.0001870598498499021
tuning, 35, 0.00018291594460606575
tuning, 36, 0.00018099141016136855
tuning, 37, 0.00017976303934119642
tuning, 38, 0.0001752302487147972
tuning, 39, 0.00017345621017739177
tuning, 40, 0.00017161411233246326
tuning, 41, 0.00016907509416341782
tuning, 42, 0.0001661219575908035
tuning, 43, 0.00016405247151851654
tuning, 44, 0.0001631657942198217
tuning, 45, 0.0001594054338056594
tuning, 46, 0.00015808793250471354
tuning, 47, 0.00015628543042112142
tuning, 48, 0.00015340361278504133
tuning, 49, 0.0001516888296464458
tuning, 50, 0.00014973973156884313
tuning, 51, 0.00014796653704252094
tuning, 52, 0.00014541031850967556
tuning, 53, 0.00014415400801226497
tuning, 54, 0.00014243402983993292
tuning, 55, 0.00014006270794197917
tuning, 56, 0.0001386578951496631
tuning, 57, 0.00013697845861315727
tuning, 58, 0.00013504635717254132
tuning, 59, 0.00013379545998759568
tuning, 60, 0.0001321151212323457
tuning, 61, 0.00013026437954977155
tuning, 62, 0.00012899687862955034
tuning, 63, 0.00012735363270621747
tuning, 64, 0.0001257892872672528
tuning, 65, 0.00012461078586056828
tuning, 66, 0.0001230414491146803
tuning, 67, 0.00012156503362348303
tuning, 68, 0.00012021752627333626
tuning, 69, 0.00011887258006026968
tuning, 70, 0.00011743145296350121
tuning, 71, 0.00011621743760770187
tuning, 72, 0.00011471818288555369
tuning, 73, 0.00011344539234414697
tuning, 74, 0.00011216819984838367
tuning, 75, 0.00011092367640230805
tuning, 76, 0.00010967507841996849
tuning, 77, 0.00010846547957044095
tuning, 78, 0.00010709383059293032
tuning, 79, 0.00010587312135612592
tuning, 80, 0.00010463096987223253
tuning, 81, 0.00010342455061618239
tuning, 82, 0.00010225972800981253
tuning, 83, 0.00010104816465172917
tuning, 84, 9.991385013563558e-05
tuning, 85, 9.873042290564626e-05
tuning, 86, 9.760247485246509e-05
tuning, 87, 9.65114013524726e-05
tuning, 88, 9.547554509481415e-05
tuning, 89, 9.421379945706576e-05
tuning, 90, 9.31117610889487e-05
tuning, 91, 9.199336636811495e-05
tuning, 92, 9.08996444195509e-05
tuning, 93, 8.985917520476505e-05
tuning, 94, 8.868853183230385e-05
tuning, 95, 8.779007475823164e-05
tuning, 96, 8.656604768475518e-05
tuning, 97, 8.548902405891567e-05
tuning, 98, 8.453038753941655e-05
tuning, 99, 8.334644371643662e-05
tuning, 100, 8.240911120083183e-05
tuning, 101, 8.126298780553043e-05
tuning, 102, 8.019722008612007e-05
tuning, 103, 7.922360236989334e-05
tuning, 104, 7.805290806572884e-05
tuning, 105, 7.719120185356587e-05
tuning, 106, 7.609004387632012e-05
tuning, 107, 7.480982458218932e-05
tuning, 108, 7.398454181384295e-05
tuning, 109, 7.281901343958452e-05
tuning, 110, 7.171244214987382e-05
tuning, 111, 7.072731386870146e-05
tuning, 112, 6.959048914723098e-05
tuning, 113, 6.852059595985338e-05
tuning, 114, 6.753136403858662e-05
tuning, 115, 6.643350934609771e-05
tuning, 116, 6.544982170453295e-05
tuning, 117, 6.441459117922932e-05
tuning, 118, 6.328437302727252e-05
tuning, 119, 6.242357630981132e-05
tuning, 120, 6.141670019133016e-05
tuning, 121, 6.038475112291053e-05
tuning, 122, 5.9271653299219906e-05
tuning, 123, 5.8145855291513726e-05
tuning, 124, 5.71074997424148e-05
tuning, 125, 5.629440420307219e-05
tuning, 126, 5.5521340982522815e-05
tuning, 127, 5.4122298024594784e-05
tuning, 128, 5.337317634257488e-05
tuning, 129, 5.321390926837921e-05
tuning, 130, 5.220340608502738e-05
tuning, 131, 5.0960305088665336e-05
tuning, 132, 4.9856385885505006e-05
tuning, 133, 4.895148958894424e-05
tuning, 134, 4.82420546177309e-05
tuning, 135, 4.766581696458161e-05
tuning, 136, 4.711169094662182e-05
tuning, 137, 4.63871328975074e-05
tuning, 138, 4.584827911457978e-05
tuning, 139, 4.523382449406199e-05
tuning, 140, 4.4688953494187444e-05
tuning, 141, 4.391025868244469e-05
tuning, 142, 4.3427218770375475e-05
tuning, 143, 4.3129180994583294e-05
tuning, 144, 4.3449334043543786e-05
tuning, 145, 4.3540239857975394e-05
tuning, 146, 4.4170341425342485e-05
tuning, 147, 4.5605185732711107e-05
tuning, 148, 4.937125413562171e-05
tuning, 149, 5.5367807362927124e-05
tuning, 150, 5.9493988374015316e-05
tuning, 151, 5.702432827092707e-05
tuning, 152, 4.938337951898575e-05
tuning, 153, 3.9741287764627486e-05
tuning, 154, 3.520755853969604e-05
tuning, 155, 3.7357891415013e-05
tuning, 156, 4.344865010352805e-05
tuning, 157, 4.854417056776583e-05
tuning, 158, 4.626893496606499e-05
tuning, 159, 3.875283800880425e-05
tuning, 160, 3.2283769542118534e-05
tuning, 161, 3.5102799301967025e-05
tuning, 162, 4.257277032593265e-05
tuning, 163, 4.3210176954744384e-05
tuning, 164, 3.615605237428099e-05
tuning, 165, 3.078228473896161e-05
tuning, 166, 2.963698898383882e-05
tuning, 167, 3.148371979477815e-05
tuning, 168, 3.398940316401422e-05
tuning, 169, 3.5520723031368107e-05
tuning, 170, 3.3819225791376084e-05
tuning, 171, 2.9086804715916514e-05
tuning, 172, 2.650346687005367e-05
tuning, 173, 3.075890344916843e-05
tuning, 174, 3.323213604744524e-05
tuning, 175, 3.129795004497282e-05
tuning, 176, 2.9648344934685156e-05
tuning, 177, 2.7239351766183972e-05
tuning, 178, 2.5930696210707538e-05
tuning, 179, 2.4440549168502912e-05
tuning, 180, 2.6233965400024317e-05
tuning, 181, 3.290998574811965e-05
tuning, 182, 2.971199864987284e-05
tuning, 183, 2.4715749532333575e-05
tuning, 184, 2.3657665224163793e-05
tuning, 185, 2.1842421119799837e-05
tuning, 186, 2.15830859815469e-05
tuning, 187, 2.1648724214173853e-05
tuning, 188, 2.0864927137154154e-05
tuning, 189, 2.327918991795741e-05
tuning, 190, 2.356922414037399e-05
tuning, 191, 2.0578725525410846e-05
tuning, 192, 2.0513360141194426e-05
tuning, 193, 2.0297366063459776e-05
tuning, 194, 2.0225199477863498e-05
tuning, 195, 2.4036533432081342e-05
tuning, 196, 2.5372180971316993e-05
tuning, 197, 2.2598935174755752e-05

 10%|███████████████████████████▌                                                                                                                                                                                                                                                       | 1/10 [02:31<22:45, 151.71s/it]
tuning, 199, 2.1467296392074786e-05
inversion time : 142.78809475898743
0, 0.1123598963022232
1, 0.1123598963022232
2, 0.10478764772415161
3, 0.09046952426433563
4, 0.07124533504247665
5, 0.050200216472148895
6, 0.03146939352154732
7, 0.020328542217612267
8, 0.014865284785628319
9, 0.012927031144499779
10, 0.01279851607978344
11, 0.013364101760089397
12, 0.014018530026078224
13, 0.014490574598312378
14, 0.014691273681819439
15, 0.014629077166318893
16, 0.014348919503390789
17, 0.013909218832850456
18, 0.013365104794502258
19, 0.01275721937417984
20, 0.01211583148688078
21, 0.011461583897471428
22, 0.010808090679347515
23, 0.010164997540414333
24, 0.009541565552353859
25, 0.008945440873503685
26, 0.008383645676076412
27, 0.007862914353609085
28, 0.007387432269752026
29, 0.006958669982850552
30, 0.006577201187610626
31, 0.006238858215510845
32, 0.005937962792813778
33, 0.005669026635587215
34, 0.005425091367214918
35, 0.005200221203267574
36, 0.004989922977983952
37, 0.004791024141013622
38, 0.004601850640028715
39, 0.004421284422278404
40, 0.00424885842949152
41, 0.004084691870957613
42, 0.003929040860384703
43, 0.0037829275242984295
44, 0.0036468913313001394
45, 0.0035208705812692642
46, 0.0034049558453261852
47, 0.003299011616036296
48, 0.003202331718057394
49, 0.003114132909104228
50, 0.003033748595044017
51, 0.0029600809793919325
52, 0.002891790121793747
53, 0.0028279293328523636
54, 0.00276760570704937
55, 0.0027105542831122875
56, 0.0026564965955913067
57, 0.0026050235610455275
58, 0.0025558394845575094
59, 0.002508621197193861
60, 0.002463372191414237
61, 0.002420149277895689
62, 0.0023789850529283285
63, 0.0023398215416818857
64, 0.0023026138078421354
65, 0.002267178613692522
66, 0.0022334284149110317
67, 0.0022011895198374987
68, 0.002170386491343379
69, 0.0021408831235021353
70, 0.002112390473484993
71, 0.0020849397405982018
72, 0.0020584396552294493
73, 0.0020326590165495872
74, 0.002007658127695322
75, 0.001983528956770897
76, 0.0019601015374064445
77, 0.0019372495589777827
78, 0.0019149737199768424
79, 0.0018933762330561876
80, 0.0018723895773291588
81, 0.0018520948942750692
82, 0.0018323620315641165
83, 0.0018131699180230498
84, 0.0017945810686796904
85, 0.001776507473550737
86, 0.001758925965987146
87, 0.0017417281633242965
