
  0%|                                                                                                                                                                                                                                                                                             | 0/1 [00:00<?, ?it/s]
0, 0.09775816649198532
1, 0.09775816649198532
2, 0.09261509031057358
3, 0.08272583782672882
4, 0.06901417672634125
5, 0.05310654640197754
6, 0.03751780092716217
7, 0.026796063408255577
8, 0.02014494314789772
9, 0.016243746504187584
10, 0.013912404887378216
11, 0.012366793118417263
12, 0.011171527206897736
13, 0.010127376765012741
14, 0.009167435579001904
15, 0.008283380419015884
16, 0.007483995519578457
17, 0.006775250192731619
18, 0.006156645715236664
19, 0.005626055411994457
20, 0.005181063897907734
21, 0.004820005502551794
22, 0.004537361674010754
23, 0.00432313047349453
24, 0.00416090153157711
25, 0.004029983654618263
26, 0.003909706138074398
27, 0.003783003194257617
28, 0.0036397974472492933
29, 0.0034765365999192
30, 0.003295574337244034
31, 0.003103235736489296
32, 0.002908984897658229
33, 0.00272120232693851
34, 0.0025457381270825863
35, 0.002386899897828698
36, 0.002246239222586155
37, 0.0021232557483017445
38, 0.0020159250125288963
39, 0.001922207185998559
40, 0.0018393141217529774
41, 0.0017645636107772589
42, 0.0016954622697085142
43, 0.0016297170659527183
44, 0.0015662440564483404
45, 0.0015042356681078672
46, 0.0014436471974477172
47, 0.0013845287030562758
48, 0.0013276169775053859
49, 0.001273568021133542
50, 0.0012229338753968477
51, 0.0011758572654798627
52, 0.0011318741599097848
53, 0.0010905477683991194
54, 0.0010515967151150107
55, 0.001014356384985149
56, 0.0009787309681996703
57, 0.0009446413023397326
58, 0.0009120607282966375
59, 0.0008810113067738712
60, 0.0008514655637554824
61, 0.0008234636625275016
62, 0.0007970412261784077
63, 0.0007720761350356042
64, 0.0007485371897928417
65, 0.0007263710722327232
66, 0.0007056146860122681
67, 0.0006861714646220207
68, 0.0006678191712126136
69, 0.0006505558849312365
70, 0.0006342424312606454
71, 0.0006188257830217481
72, 0.0006042124587111175
73, 0.0005902860430069268
74, 0.0005768928676843643
75, 0.0005640456220135093
76, 0.0005517769022844732
77, 0.0005400330992415547
78, 0.0005288663669489324
79, 0.0005182513268664479
80, 0.0005081912386231124
81, 0.0004986780695617199
82, 0.000489606405608356
83, 0.0004809824167750776
84, 0.00047279224963858724
85, 0.00046498182928189635
86, 0.0004575546772684902
87, 0.00045050616608932614
88, 0.0004437833558768034
89, 0.00043738223030231893
90, 0.00043126579839736223
91, 0.00042543309973552823
92, 0.00041985808638855815
93, 0.0004145096754655242
94, 0.0004093885072506964
95, 0.00040450028609484434
96, 0.000399797223508358
97, 0.00039529925561510026
98, 0.00039097684202715755
99, 0.0003868180501740426
100, 0.00038283405592665076
101, 0.00037899179733358324
102, 0.000375303061446175
103, 0.0003717440413311124
104, 0.0003683047543745488
105, 0.0003649784193839878
106, 0.00036176102003082633
107, 0.0003585966187529266
108, 0.000355609692633152
109, 0.00035270987427793443
110, 0.0003498993464745581
111, 0.00034716801019385457
112, 0.0003445250913500786
113, 0.0003419862478040159
114, 0.0003395203675609082
115, 0.00033711508149281144
116, 0.00033481535501778126
117, 0.0003325725847389549
118, 0.0003304004785604775
119, 0.00032829734846018255
120, 0.000326284090988338
121, 0.00032432866282761097
122, 0.000322414911352098
123, 0.00032056597410701215
124, 0.0003187800757586956
125, 0.00031705445144325495
126, 0.00031538339680992067
127, 0.0003137572202831507
128, 0.0003121879999525845
129, 0.0003106803633272648
130, 0.00030921108555048704
131, 0.0003077783912885934
132, 0.0003064194170292467
133, 0.0003050928353331983
134, 0.0003037966671399772
135, 0.0003025546029675752
136, 0.00030134807457216084
137, 0.00030019317637197673
138, 0.0002990806242451072
139, 0.0002979964774567634
140, 0.0002969473716802895
141, 0.00029594902298413217
142, 0.00029497232753783464
143, 0.00029404033557511866
144, 0.00029313299455679953
145, 0.000292271317448467
146, 0.00029142596758902073
147, 0.00029061350505799055
148, 0.00028984257369302213
149, 0.00028910068795084953
150, 0.0002883691340684891
151, 0.0002876663929782808
152, 0.00028701170231215656
153, 0.0002863735135179013
154, 0.00028576998738572
155, 0.00028517760802060366
156, 0.0002846225106623024
157, 0.0002840797824319452
158, 0.0002835591440089047
159, 0.00028307910542935133
160, 0.00028260619728825986
161, 0.00028216157807037234
162, 0.000281740038190037
163, 0.00028133249725215137
164, 0.0002809576108120382
165, 0.00028058839961886406
166, 0.00028024520725011826
167, 0.0002799152862280607
168, 0.0002796174376271665
169, 0.00027933248202316463
170, 0.0002790651051327586
171, 0.00027880037669092417
172, 0.0002785602118819952
173, 0.0002783423406071961
174, 0.00027812912594527006
175, 0.00027793546905741096
176, 0.0002777497284114361
177, 0.0002775877364911139
178, 0.00027744407998397946
179, 0.0002773058949969709
180, 0.000277163228020072
181, 0.00027705891989171505
182, 0.00027694617165252566
183, 0.0002768483245745301
184, 0.00027676773606799543
185, 0.000276697741355747
186, 0.0002766281249932945
187, 0.0002765666868072003
188, 0.0002765186072792858
189, 0.0002764755627140403
190, 0.0002764426462817937
191, 0.0002764115924946964
192, 0.0002763917436823249
193, 0.0002763741067610681
194, 0.00027635012520477176
195, 0.00027634412981569767
196, 0.00027633272111415863
197, 0.00027633272111415863
198, 0.0002763265511021018
199, 0.0002763248630799353
0 2.5497381687164307 0.05 8.833484649658203
1 2.3961799144744873 0.05 7.801527976989746
2 2.1912038326263428 0.05 6.5238871574401855
3 1.8552764654159546 0.05 4.676900863647461
4 1.4541223049163818 0.05 2.873047351837158
5 1.0523053407669067 0.05 1.5046119689941406
6 0.7902486324310303 0.05 0.8485323190689087
7 0.5981842875480652 0.05 0.4861953854560852
8 0.4832873046398163 0.05 0.31735959649086
9 0.4098621904850006 0.05 0.22825303673744202
10 0.3578154742717743 0.05 0.17396387457847595
11 0.31863510608673096 0.05 0.1379520297050476
12 0.28808021545410156 0.05 0.11276329308748245
13 0.26356443762779236 0.05 0.09438750147819519
14 0.2435537874698639 0.05 0.08059918135404587
15 0.22695577144622803 0.05 0.06998796761035919
16 0.2129547894001007 0.05 0.06161915510892868
17 0.20096252858638763 0.05 0.05487456172704697
18 0.1905449479818344 0.05 0.04933279752731323
19 0.18139956891536713 0.05 0.044710900634527206
20 0.1732727736234665 0.05 0.0407944917678833
21 0.16596582531929016 0.05 0.0374264158308506
22 0.15934741497039795 0.05 0.03450094163417816
23 0.15329258143901825 0.05 0.031928837299346924
24 0.1477247029542923 0.05 0.02965153008699417
25 0.14256320893764496 0.05 0.027615681290626526
26 0.13776084780693054 0.05 0.0257865022867918
27 0.13326522707939148 0.05 0.02413095533847809
28 0.1290409117937088 0.05 0.02262537181377411
29 0.12506192922592163 0.05 0.02125157229602337
30 0.12129165977239609 0.05 0.019989538937807083
31 0.11771012097597122 0.05 0.018826451152563095
32 0.1143064796924591 0.05 0.017753440886735916
33 0.11105272173881531 0.05 0.016757115721702576
34 0.10794422030448914 0.05 0.015832141041755676
35 0.10496045649051666 0.05 0.01496898289769888
36 0.10211549699306488 0.05 0.0141685102134943
37 0.09938299655914307 0.05 0.013420388102531433
38 0.0967649444937706 0.05 0.01272263191640377
39 0.09424992650747299 0.05 0.012069878168404102
40 0.09183996170759201 0.05 0.011460518464446068
41 0.08952824771404266 0.05 0.010890831239521503
42 0.08730913698673248 0.05 0.010357626713812351
43 0.08517268300056458 0.05 0.009856926277279854
44 0.08312222361564636 0.05 0.009388045407831669
45 0.08114983141422272 0.05 0.008947797119617462
46 0.07925867289304733 0.05 0.008535608649253845
47 0.07744082808494568 0.05 0.008148559369146824
48 0.07569430023431778 0.05 0.00778515450656414
49 0.07401636987924576 0.05 0.007443830370903015
50 0.07240251451730728 0.05 0.007122756913304329
51 0.07085162401199341 0.05 0.006820881739258766
52 0.06936117261648178 0.05 0.006536928005516529
53 0.06792443990707397 0.05 0.006268924102187157
54 0.06654369831085205 0.05 0.006016650702804327
55 0.0652117058634758 0.05 0.005778192542493343
56 0.06393259763717651 0.05 0.005553739611059427
57 0.06269436329603195 0.05 0.005340696312487125
58 0.061498239636421204 0.05 0.005138853564858437
59 0.06034582108259201 0.05 0.004948063753545284
60 0.059229329228401184 0.05 0.0047666640020906925
61 0.05814789608120918 0.05 0.004594189114868641
62 0.05710329860448837 0.05 0.004430606961250305
63 0.056091729551553726 0.05 0.004275023005902767
64 0.05510840192437172 0.05 0.004126449581235647
65 0.054156020283699036 0.05 0.003985055722296238
66 0.05322663113474846 0.05 0.003849451430141926
67 0.05233652889728546 0.05 0.0037217801436781883
68 0.051460012793540955 0.05 0.00359816150739789
69 0.05061120539903641 0.05 0.0034804404713213444
70 0.049785275012254715 0.05 0.0033677718602120876
71 0.04898517206311226 0.05 0.003260394325479865
72 0.04820165038108826 0.05 0.0031569278798997402
73 0.047438763082027435 0.05 0.003057789523154497
74 0.04669849947094917 0.05 0.0029631026554852724
75 0.04597362503409386 0.05 0.0028718276880681515
76 0.04526922106742859 0.05 0.0027844978030771017
77 0.04458083212375641 0.05 0.002700456650927663
78 0.04391183704137802 0.05 0.0026200166903436184
79 0.04325566068291664 0.05 0.002542299684137106
80 0.04261736199259758 0.05 0.0024678229819983244
81 0.04198833182454109 0.05 0.002395510906353593
82 0.041376110166311264 0.05 0.002326163463294506
83 0.04078361764550209 0.05 0.002260020701214671
84 0.040196411311626434 0.05 0.002195409033447504
85 0.039622850716114044 0.05 0.0021332036703824997
86 0.0390678234398365 0.05 0.002073859330266714
87 0.03852110356092453 0.05 0.0020162216387689114
88 0.03798512741923332 0.05 0.001960505498573184
89 0.03746284544467926 0.05 0.0019069635309278965
90 0.0369504913687706 0.05 0.0018551596440374851
91 0.036449313163757324 0.05 0.0018051762599498034
92 0.03595846891403198 0.05 0.001756884390488267
93 0.035476647317409515 0.05 0.0017101175617426634
94 0.035004038363695145 0.05 0.0016648579621687531
95 0.03454318270087242 0.05 0.0016213080380111933
96 0.03408725559711456 0.05 0.0015787921147421002
97 0.033646389842033386 0.05 0.0015382179990410805
98 0.03321028873324394 0.05 0.001498601632192731
99 0.0327829085290432 0.05 0.0014602791052311659

100%|█████████████████████████████████████████████████████████████████████████████████████████████████████████████████████████████████████████████████████████████████████████████████████████████████████████████████████████████████████████████████████████████████████████████████████| 1/1 [01:13<00:00, 73.47s/it]