
  0%|                                                                                                                                                                                                                                                                                            | 0/10 [00:00<?, ?it/s]
0, 0.1364392638206482
1, 0.1364392638206482
2, 0.12979242205619812
3, 0.1169479712843895
4, 0.09893608093261719
5, 0.07756016403436661
6, 0.05549613758921623
7, 0.038769420236349106
8, 0.027033139020204544
9, 0.019468747079372406
10, 0.015014014206826687
11, 0.01262173056602478
12, 0.011441800743341446
13, 0.010876822285354137
14, 0.010552603751420975
15, 0.010260164737701416
16, 0.00989522598683834
17, 0.009426171891391277
18, 0.008862921968102455
19, 0.008233754895627499
20, 0.0075731538236141205
21, 0.006914403289556503
22, 0.0062889717519283295
23, 0.005723696202039719
24, 0.005233225878328085
25, 0.004821756388992071
26, 0.004487574100494385
27, 0.004221088252961636
28, 0.00401053112000227
29, 0.003840906312689185
30, 0.003696650266647339
31, 0.0035651829093694687
32, 0.003435250371694565
33, 0.003300449578091502
34, 0.003156860126182437
35, 0.0030039693228900433
36, 0.0028433918487280607
37, 0.0026781149208545685
38, 0.0025122452061623335
39, 0.0023500050883740187
40, 0.0021952050738036633
41, 0.0020511820912361145
42, 0.0019198845839127898
43, 0.001802339218556881
44, 0.00169851235114038
45, 0.001607439829967916
46, 0.001527645392343402
47, 0.0014571044594049454
48, 0.0013937572948634624
49, 0.0013357832795009017
50, 0.0012815708760172129
51, 0.0012301788665354252
52, 0.0011809992138296366
53, 0.001133873127400875
54, 0.0010887945536524057
55, 0.0010459690820425749
56, 0.0010056894971057773
57, 0.0009681312367320061
58, 0.0009333229390904307
59, 0.0009010679787024856
60, 0.0008710933616384864
61, 0.0008431327878497541
62, 0.0008168700151145458
63, 0.0007919706404209137
64, 0.0007682067807763815
65, 0.0007454172591678798
66, 0.0007234669174067676
67, 0.0007023961516097188
68, 0.0006822877330705523
69, 0.0006631670403294265
70, 0.0006452007219195366
71, 0.0006283610127866268
72, 0.0006126555381342769
73, 0.0005980556597933173
74, 0.0005845004925504327
75, 0.0005718664033338428
76, 0.0005600256263278425
77, 0.0005488613387569785
78, 0.0005382964154705405
79, 0.0005282443016767502
80, 0.0005186322960071266
81, 0.000509431236423552
82, 0.0005006054416298866
83, 0.0004921664949506521
84, 0.0004841007466893643
85, 0.00047640083357691765
86, 0.0004690447240136564
87, 0.0004620036925189197
88, 0.00045528620830737054
89, 0.0004488557460717857
90, 0.00044267461635172367
91, 0.00043675891356542706
92, 0.00043104271753691137
93, 0.00042555187246762216
94, 0.0004202510172035545
95, 0.0004151433822698891
96, 0.0004101936938241124
97, 0.00040538888424634933
98, 0.0004007375973742455
99, 0.00039621349424123764
100, 0.0003918290603905916
101, 0.00038757658330723643
102, 0.0003834228846244514
103, 0.00037940670154057443
104, 0.0003755157522391528
105, 0.00037173900636844337
106, 0.00036808275035582483
107, 0.00036452733911573887
108, 0.0003610733838286251
109, 0.0003577105235308409
110, 0.0003544125647749752
111, 0.0003511969407554716
112, 0.0003480484592728317
113, 0.0003449707292020321
114, 0.00034197495551779866
115, 0.000339039892423898
116, 0.0003361728449817747
117, 0.0003333751519676298
118, 0.00033063575392588973
119, 0.0003279668453615159
120, 0.0003253543400205672
121, 0.00032278377329930663
122, 0.0003202749358024448
123, 0.0003178175538778305
124, 0.0003154055157210678
125, 0.0003130371915176511
126, 0.00031070815748535097
127, 0.0003084329073317349
128, 0.00030620404868386686
129, 0.00030400417745113373
130, 0.00030185061041265726
131, 0.00029974948847666383
132, 0.00029767650994472206
133, 0.0002956495445687324
134, 0.0002936626842711121
135, 0.0002917077799793333
136, 0.0002897895174100995
137, 0.00028790481155738235
138, 0.0002860577660612762
139, 0.00028423426556400955
140, 0.0002824340481311083
141, 0.00028067894163541496
142, 0.00027895253151655197
143, 0.00027725734980776906
144, 0.0002756006142590195
145, 0.0002739540650509298
146, 0.0002723325742408633
147, 0.0002707597450353205
148, 0.00026919529773294926
149, 0.00026766714290715754
150, 0.00026616465765982866
151, 0.0002646779757924378
152, 0.0002632185351103544
153, 0.000261795794358477
154, 0.0002603832399472594
155, 0.00025900269974954426
156, 0.00025764069869183004
157, 0.0002563053567428142
158, 0.0002549888158682734
159, 0.000253690144745633
160, 0.00025241190451197326
161, 0.00025115348398685455
162, 0.00024991342797875404
163, 0.00024869103799574077
164, 0.0002474694047123194
165, 0.00024629157269373536
166, 0.00024511944502592087
167, 0.0002439578966004774
168, 0.00024281458172481507
169, 0.00024168372328858823
170, 0.00024056823167484254
171, 0.00023946729197632521
172, 0.00023838423658162355
173, 0.0002373067254666239
174, 0.00023625655740033835
175, 0.00023521078401245177
176, 0.0002341792860534042
177, 0.00023315497674047947
178, 0.000232154197874479
179, 0.0002311531570740044
180, 0.00023016449995338917
181, 0.00022920277842786163
182, 0.0002282307541463524
183, 0.00022727367468178272
184, 0.00022633105982095003
185, 0.00022539167548529804
186, 0.00022446183720603585
187, 0.00022354177781380713
188, 0.00022262998390942812
189, 0.0002217315195593983
190, 0.00022084242664277554
191, 0.00021997219300828874
192, 0.0002191217354265973
193, 0.00021827305317856371
194, 0.00021743771503679454
195, 0.00021661542996298522
196, 0.00021581261535175145
197, 0.0002150182262994349
198, 0.00021422258578240871
199, 0.00021344624110497534
200, 0.00021267306874506176
201, 0.00021191732957959175
202, 0.00021116656716912985
203, 0.00021042823209427297
204, 0.00020970804325770587
205, 0.0002089924382744357
206, 0.00020829515415243804
207, 0.0002076107048196718
208, 0.00020692928228527308
209, 0.00020627141930162907
210, 0.0002056096855085343
211, 0.00020495364151429385
212, 0.00020432184101082385
213, 0.00020368215336930007
214, 0.00020307418890297413
215, 0.00020245517953298986
216, 0.00020185844914522022
217, 0.00020125514129176736
218, 0.00020066986326128244
219, 0.00020009202125947922
220, 0.0001995327475015074
221, 0.000198973692022264
222, 0.00019841999164782465
223, 0.00019788238569162786
224, 0.00019733820226974785
225, 0.0001968174910871312
226, 0.00019629334565252066
227, 0.00019578120554797351
228, 0.0001952769816853106
229, 0.00019478413742035627
230, 0.00019428913947194815
231, 0.00019380971207283437
232, 0.00019333399541210383
233, 0.00019285937014501542
234, 0.00019240131950937212
235, 0.00019194178457837552
236, 0.00019149213039781898
237, 0.00019104816601611674
238, 0.0001906134421005845
239, 0.00019018613966181874
240, 0.00018976225692313164
241, 0.00018934000399895012
242, 0.00018893314700108021
243, 0.00018852534412872046
244, 0.00018812435155268759
245, 0.0001877324393717572
246, 0.00018734968034550548
247, 0.00018696450570132583
248, 0.00018658838234841824
249, 0.00018621605704538524
250, 0.00018585394718684256
251, 0.00018548865045886487
252, 0.0001851366541814059
253, 0.00018478922720532864
254, 0.0001844453945523128
255, 0.00018411017663311213
256, 0.00018377622473053634
257, 0.0001834531285567209
258, 0.00018312354222871363
259, 0.0001828068634495139
260, 0.00018249067943543196
261, 0.0001821831101551652
262, 0.0001818811142584309
263, 0.00018158325110562146
264, 0.00018128844385500997
265, 0.00018100743182003498
266, 0.00018072326201945543
267, 0.00018044104217551649
268, 0.00018016615649685264
269, 0.00017988949548453093
270, 0.00017962316633202136
271, 0.00017936460790224373
272, 0.00017910628230310977
273, 0.00017885107081383467
274, 0.00017860431398730725
275, 0.0001783524639904499
276, 0.00017811183352023363
277, 0.00017787321121431887
278, 0.0001776342251105234
279, 0.00017740447947289795
280, 0.0001771778624970466
281, 0.00017695156566333026
282, 0.00017673229740466923
283, 0.0001765207853168249
284, 0.00017630396177992225
285, 0.00017609595670364797
286, 0.00017589365597814322
287, 0.0001756867131916806
288, 0.0001754905970301479
289, 0.00017529718752484769
290, 0.0001751026138663292
291, 0.00017491751350462437
292, 0.00017473383923061192
293, 0.00017456128261983395
294, 0.0001743832544889301
295, 0.00017420612857677042
296, 0.00017403460515197366
297, 0.0001738650316838175
298, 0.00017370248679071665
299, 0.00017354275041725487
300, 0.00017338052566628903
301, 0.00017322698840871453
302, 0.00017307633243035525
303, 0.00017292654956690967
304, 0.00017277404549531639
305, 0.00017263027257286012
306, 0.0001724909379845485
307, 0.00017235579434782267
308, 0.00017222025780938566
309, 0.00017208715144079179
310, 0.00017195787222590297
311, 0.00017183588352054358
312, 0.000171713501913473
313, 0.00017159405979327857
314, 0.00017147057224065065
315, 0.0001713568635750562
316, 0.0001712419034447521
317, 0.00017112804926000535
318, 0.0001710236247163266
319, 0.00017091631889343262
320, 0.00017081641999538988
321, 0.00017071233014576137
322, 0.00017061433754861355
323, 0.00017052252951543778
324, 0.0001704262540442869
325, 0.00017033409676514566
326, 0.0001702451700111851
327, 0.00017016187484841794
328, 0.00017007297719828784
329, 0.00016999668150674552
330, 0.0001699119311524555
331, 0.00016983591194730252
332, 0.00016975653124973178
333, 0.00016968220006674528
334, 0.00016961473738774657
335, 0.00016953865997493267
336, 0.00016947704716585577
337, 0.0001694145321380347
338, 0.00016934848099481314
339, 0.00016928379773162305
340, 0.00016922346549108624
341, 0.00016916776075959206
342, 0.00016910393605940044
343, 0.00016904852236621082
344, 0.00016899744514375925
345, 0.0001689546916168183
346, 0.00016890121332835406
347, 0.0001688560878392309
348, 0.0001688101328909397
349, 0.00016876051086001098
350, 0.00016872397100087255
351, 0.0001686836767476052
352, 0.00016864149074535817
353, 0.00016860125469975173
354, 0.00016856389993336052
355, 0.00016853594570420682
356, 0.00016849691746756434
357, 0.00016846769722178578
358, 0.00016843690536916256
359, 0.00016840858734212816
360, 0.0001683788577793166
361, 0.00016835282440297306
362, 0.00016832712572067976
363, 0.00016830643289722502
364, 0.00016828037041705102
365, 0.00016825780039653182
366, 0.0001682362490100786
367, 0.0001682206493569538
368, 0.00016819759912323207
369, 0.00016818531730677933
370, 0.00016816859715618193
371, 0.000168152735568583
372, 0.00016813632100820541
373, 0.00016812607645988464
374, 0.00016811300884000957
375, 0.00016809877706691623
376, 0.00016808832879178226
377, 0.00016807674546726048
378, 0.00016807181236799806
379, 0.00016806559870019555
380, 0.00016805180348455906
381, 0.00016805097402539104
382, 0.00016804516781121492
383, 0.0001680392015259713
384, 0.00016803108155727386
385, 0.0001680321292951703
386, 0.00016802610480226576
387, 0.00016802122991066426
388, 0.0001680221175774932
389, 0.0001680209388723597
390, 0.00016801751917228103
391, 0.00016801424499135464
392, 0.00016801274614408612
393, 0.00016801219317130744
394, 0.0001680143759585917
395, 0.00016800660523585975
396, 0.00016801230958662927
397, 0.0001680104760453105
398, 0.00016801428864710033
399, 0.00016801172751002014
0 2.569629430770874 0.05 7.86646842956543
1 2.4107728004455566 0.05 6.9239091873168945
2 2.243701934814453 0.05 5.9974846839904785
3 2.039353609085083 0.05 4.954773902893066
4 1.7656511068344116 0.05 3.7140567302703857
5 1.3639750480651855 0.05 2.2164177894592285
6 0.9260618686676025 0.05 1.0216891765594482
7 0.6311546564102173 0.05 0.47458094358444214
8 0.5145981907844543 0.05 0.315482497215271
9 0.4281022846698761 0.05 0.21834027767181396
10 0.3637729585170746 0.05 0.15765205025672913
11 0.31631091237068176 0.05 0.11919751763343811
12 0.27880895137786865 0.05 0.09260880202054977
13 0.2486666440963745 0.05 0.07366715371608734
14 0.22458012402057648 0.05 0.06008712574839592
15 0.20539474487304688 0.05 0.05025941878557205
16 0.18994855880737305 0.05 0.04298439621925354
17 0.17721478641033173 0.05 0.037414394319057465
18 0.16648980975151062 0.05 0.033022817224264145
19 0.15725171566009521 0.05 0.029459787532687187
20 0.14917443692684174 0.05 0.026511089876294136
21 0.14201153814792633 0.05 0.02402625046670437
22 0.1355738639831543 0.05 0.02189730852842331
23 0.12974707782268524 0.05 0.02005552314221859
24 0.12443798035383224 0.05 0.01844780519604683
25 0.11956267803907394 0.05 0.01703060418367386
26 0.11506828665733337 0.05 0.015774298459291458
27 0.11090943217277527 0.05 0.014654658734798431
28 0.10704680532217026 0.05 0.013651682995259762
29 0.10344114899635315 0.05 0.012747513130307198
30 0.10007520020008087 0.05 0.011931408196687698
31 0.09691382199525833 0.05 0.01118948869407177
32 0.0939425453543663 0.05 0.010513889603316784
33 0.09113774448633194 0.05 0.00989544577896595
34 0.08848697692155838 0.05 0.009328192099928856
35 0.08597724139690399 0.05 0.00880655087530613
36 0.08357817679643631 0.05 0.008321939967572689
37 0.08131352812051773 0.05 0.007877064868807793
38 0.07914406806230545 0.05 0.007462348788976669
39 0.07706378400325775 0.05 0.007075211964547634
40 0.0750807374715805 0.05 0.006715770810842514
41 0.07318553328514099 0.05 0.0063810087740421295
42 0.0713622197508812 0.05 0.006067020818591118
43 0.06960412114858627 0.05 0.005771765485405922
44 0.06792528182268143 0.05 0.005496695172041655
45 0.06630277633666992 0.05 0.0052372366189956665
46 0.06473620235919952 0.05 0.004992674104869366
47 0.06322696059942245 0.05 0.004762592259794474
48 0.06177715212106705 0.05 0.004546681419014931
49 0.06037057191133499 0.05 0.004341995343565941
50 0.05900741368532181 0.05 0.004148127045482397
51 0.05770435929298401 0.05 0.003966943826526403
52 0.05643009394407272 0.05 0.0037936768494546413
53 0.055191319435834885 0.05 0.0036289445124566555
54 0.054011568427085876 0.05 0.003475460223853588
55 0.052853453904390335 0.05 0.0033280167263001204
56 0.05172701179981232 0.05 0.003187671536579728
57 0.050643306225538254 0.05 0.003055504523217678
58 0.04959191009402275 0.05 0.0029299515299499035
59 0.04856936261057854 0.05 0.0028103708755224943
60 0.04758095368742943 0.05 0.0026971499901264906
61 0.04661950469017029 0.05 0.0025892502162605524
62 0.04567310959100723 0.05 0.002485192148014903
63 0.044772520661354065 0.05 0.0023881513625383377
64 0.0438830703496933 0.05 0.0022942081559449434
65 0.04302767291665077 0.05 0.0022056391462683678
66 0.04218578338623047 0.05 0.0021201716735959053
67 0.04137157276272774 0.05 0.002039120299741626
68 0.040586892515420914 0.05 0.001962503418326378
69 0.03980617970228195 0.05 0.0018877299735322595
70 0.03906244412064552 0.05 0.001817848184145987
71 0.03833335265517235 0.05 0.0017506219446659088
72 0.037617892026901245 0.05 0.0016858841991052032
73 0.0369231142103672 0.05 0.0016241846606135368
74 0.03625297173857689 0.05 0.0015657631447538733
75 0.03559592366218567 0.05 0.0015095213893800974
76 0.03495403006672859 0.05 0.0014555708039551973
77 0.03431743383407593 0.05 0.0014030347811058164
78 0.03371318429708481 0.05 0.0013540612999349833
79 0.03312264382839203 0.05 0.0013070397544652224
80 0.03253640979528427 0.05 0.0012611828278750181
81 0.03196680545806885 0.05 0.0012174112489446998
82 0.03141448646783829 0.05 0.0011757060419768095
83 0.03087863139808178 0.05 0.0011359385680407286
84 0.030344365164637566 0.05 0.0010969704017043114
85 0.029831750318408012 0.05 0.00106022076215595
86 0.02932908572256565 0.05 0.0010247922036796808
87 0.028836380690336227 0.05 0.0009906500345095992
88 0.02836073562502861 0.05 0.0009582388447597623
89 0.027886822819709778 0.05 0.0009264816762879491
90 0.027429867535829544 0.05 0.0008963677100837231
91 0.02698378637433052 0.05 0.0008674502605572343
92 0.026538895443081856 0.05 0.0008390821749344468
93 0.02611498348414898 0.05 0.0008124904707074165
94 0.025689536705613136 0.05 0.0007862330530770123
95 0.025281179696321487 0.05 0.0007614359492436051
96 0.024879340082406998 0.05 0.0007374227279797196
97 0.024490265175700188 0.05 0.0007145386771298945
98 0.024101916700601578 0.05 0.0006920571904629469
99 0.02372729405760765 0.05 0.000670710694976151
tuning, 0, 0.00020855168986599892
tuning, 1, 0.0004415599105414003
tuning, 2, 0.004688628017902374
tuning, 3, 0.0009672659216448665
tuning, 4, 0.004630132578313351
tuning, 5, 0.001498018391430378
tuning, 6, 0.0008238714653998613
tuning, 7, 0.0014383308589458466
tuning, 8, 0.0014790192944929004
tuning, 9, 0.0010823598131537437
tuning, 10, 0.000988886458799243
tuning, 11, 0.0014880797825753689
tuning, 12, 0.001269567641429603
tuning, 13, 0.0009324864367954433
tuning, 14, 0.0009218159830197692
tuning, 15, 0.000851710035931319
tuning, 16, 0.0009014398674480617
tuning, 17, 0.0008680258761160076
tuning, 18, 0.000756562571041286
tuning, 19, 0.0006669155554845929
tuning, 20, 0.0005672132829204202
tuning, 21, 0.0005862043472006917
tuning, 22, 0.0007443143986165524
tuning, 23, 0.0006740220705978572
tuning, 24, 0.0004488973645493388
tuning, 25, 0.0004192437045276165
tuning, 26, 0.0005547819891944528
tuning, 27, 0.0005225184722803533
tuning, 28, 0.00036654912400990725
tuning, 29, 0.0004694309027399868
tuning, 30, 0.0006288342992775142
tuning, 31, 0.0005479505052790046
tuning, 32, 0.00039196861325763166
tuning, 33, 0.00033708426053635776
tuning, 34, 0.00036376528441905975
tuning, 35, 0.00039800172089599073
tuning, 36, 0.00036073577939532697
tuning, 37, 0.0003743454290088266
tuning, 38, 0.0003600957279559225
tuning, 39, 0.00031454942654818296
tuning, 40, 0.00030342035461217165
tuning, 41, 0.00028619851218536496
tuning, 42, 0.0002710993285290897
tuning, 43, 0.00028662022668868303
tuning, 44, 0.0003328324237372726
tuning, 45, 0.0003104354254901409
tuning, 46, 0.0002861385000869632
tuning, 47, 0.00031812957604415715
tuning, 48, 0.00022826282656751573
tuning, 49, 0.00023869701544754207
tuning, 50, 0.00026143339346162975
tuning, 51, 0.0002388896537013352
tuning, 52, 0.000220350906602107
tuning, 53, 0.00020653184037655592
tuning, 54, 0.00020539469551295042
tuning, 55, 0.00019799606525339186
tuning, 56, 0.0001846285304054618
tuning, 57, 0.00017960276454687119
tuning, 58, 0.0001688472111709416
tuning, 59, 0.00016678471001796424
tuning, 60, 0.0001841265184339136
tuning, 61, 0.00017109773762058467
tuning, 62, 0.0001613758795429021
tuning, 63, 0.00018071744125336409
tuning, 64, 0.00017350695270579308
tuning, 65, 0.00015276827616617084
tuning, 66, 0.0001583846751600504
tuning, 67, 0.00017375840980093926
tuning, 68, 0.00015411069034598768
tuning, 69, 0.00014124206791166216
tuning, 70, 0.00014748895773664117
tuning, 71, 0.0001408609823556617
tuning, 72, 0.00013640701945405453
tuning, 73, 0.00013154864427633584
tuning, 74, 0.0001366230280837044
tuning, 75, 0.00014907649892847985
tuning, 76, 0.0001332066603936255
tuning, 77, 0.00013089319691061974
tuning, 78, 0.0001346134813502431
tuning, 79, 0.00012124310887884349

 10%|███████████████████████████▌                                                                                                                                                                                                                                                       | 1/10 [02:48<25:14, 168.32s/it]
0, 0.1123598963022232
1, 0.1123598963022232
2, 0.10478734970092773
3, 0.09046943485736847
4, 0.07124532759189606
5, 0.05020035803318024
6, 0.03146950155496597
7, 0.020328223705291748
8, 0.014864517375826836
9, 0.012926986441016197
10, 0.012800760567188263
11, 0.013368847779929638
12, 0.01402697991579771
13, 0.014502751640975475
14, 0.014706462621688843
15, 0.01464641373604536
16, 0.014367744326591492
17, 0.013928897678852081
18, 0.013384422287344933
19, 0.012776529416441917
20, 0.01213419996201992
21, 0.011478640139102936
22, 0.010822813026607037
23, 0.010177483782172203
24, 0.009551617316901684
25, 0.008952571079134941
26, 0.008388511836528778
27, 0.007866115309298038
28, 0.007389555685222149
29, 0.006960388273000717
30, 0.006579354405403137
31, 0.006241904571652412
32, 0.005942010320723057
33, 0.005673921667039394
34, 0.005430260207504034
35, 0.005204946734011173
