
  0%|                                                                                                                                                                                                                                                                                                                                                                              | 0/10 [00:00<?, ?it/s]
0, 0.1364392638206482
1, 0.1364392638206482
2, 0.12979230284690857
3, 0.11694811284542084
4, 0.098936066031456
5, 0.07756033539772034
6, 0.05549619719386101
7, 0.03877302259206772
8, 0.027045493945479393
9, 0.01948978379368782
10, 0.015038236044347286
11, 0.012640620581805706
12, 0.011447648517787457
13, 0.01086520403623581
14, 0.010523587465286255
15, 0.010215534828603268
16, 0.009841364808380604
17, 0.009367181919515133
18, 0.008805143646895885
19, 0.00818094052374363
20, 0.007529814727604389
21, 0.00688026612624526
22, 0.006261862814426422
23, 0.005697003565728664
24, 0.005200949497520924
25, 0.004777906928211451
26, 0.004425422288477421
27, 0.004136757459491491
28, 0.0039021435659378767
29, 0.003708904143422842
30, 0.0035452465526759624
31, 0.0034007790964096785
32, 0.003265861887484789
33, 0.003134526079520583
34, 0.003003021702170372
35, 0.0028688765596598387
36, 0.0027320783119648695
37, 0.0025934348814189434
38, 0.0024547590874135494
39, 0.002318129874765873
40, 0.0021858990658074617
41, 0.0020598205737769604
42, 0.0019416859140619636
43, 0.001832280308008194
44, 0.001732098637148738
45, 0.0016413324046880007
46, 0.0015594863798469305
47, 0.0014860248193144798
48, 0.0014202229212969542
49, 0.0013612192124128342
50, 0.0013079283526167274
51, 0.0012596662854775786
52, 0.0012156139127910137
53, 0.0011752266436815262
54, 0.0011379135539755225
55, 0.001103371148929
56, 0.0010712752118706703
57, 0.0010414349380880594
58, 0.0010135732591152191
59, 0.0009876840049400926
60, 0.0009635767200961709
61, 0.0009412704384885728
62, 0.0009204773232340813
63, 0.0009013200178742409
64, 0.0008835740154609084
65, 0.0008672631229273975
66, 0.000852207827847451
67, 0.0008383206441067159
68, 0.0008255960419774055
69, 0.0008138649864122272
70, 0.0008030827157199383
71, 0.0007932200096547604
72, 0.0007841353071853518
73, 0.0007758311694487929
74, 0.0007682450814172626
75, 0.0007612785557284951
76, 0.0007549095898866653
77, 0.0007491180440410972
78, 0.0007438441971316934
79, 0.0007390570244751871
80, 0.0007347328937612474
81, 0.0007308135973289609
82, 0.0007273216615431011
83, 0.0007242308929562569
84, 0.0007214313372969627
85, 0.0007189332391135395
86, 0.0007168352603912354
87, 0.000714951369445771
88, 0.0007133287144824862
89, 0.0007119871443137527
90, 0.0007108458667062223
91, 0.0007098658243194222
92, 0.0007090935250744224
93, 0.0007084837416186929
94, 0.0007080067880451679
95, 0.000707654224243015
96, 0.0007074153982102871
97, 0.0007072639418765903
98, 0.0007071836735121906
99, 0.0007071419386193156
0 2.41910982131958 0.05 7.640544891357422
1 2.2590596675872803 0.05 6.662980079650879
2 2.091573476791382 0.05 5.711621284484863
3 1.8938171863555908 0.05 4.682623863220215
4 1.6141042709350586 0.05 3.401545286178589
5 1.2362146377563477 0.05 1.9952664375305176
6 0.8045367002487183 0.05 0.8450937271118164
7 0.5749209523200989 0.05 0.43154826760292053
8 0.4720836877822876 0.05 0.290971964597702
9 0.39230334758758545 0.05 0.2009357064962387
10 0.3378305435180664 0.05 0.14900848269462585
11 0.29667776823043823 0.05 0.11491671204566956
12 0.265171617269516 0.05 0.09180519729852676
13 0.24007615447044373 0.05 0.07525081932544708
14 0.21956892311573029 0.05 0.06294407695531845
15 0.20262975990772247 0.05 0.05360676720738411
16 0.1885078102350235 0.05 0.04639507085084915
17 0.17651879787445068 0.05 0.040681324899196625
18 0.16619251668453217 0.05 0.03606086224317551
19 0.15711712837219238 0.05 0.032229989767074585
20 0.14906339347362518 0.05 0.02901049144566059
21 0.14182564616203308 0.05 0.026261689141392708
22 0.1352851837873459 0.05 0.02389536425471306
23 0.12931250035762787 0.05 0.02183203212916851
24 0.12385135143995285 0.05 0.02002694085240364
25 0.11883881688117981 0.05 0.018438680097460747
26 0.11421821266412735 0.05 0.017032712697982788
27 0.10993893444538116 0.05 0.015780333429574966
28 0.10597380250692368 0.05 0.014662571251392365
29 0.10228686779737473 0.05 0.013660069555044174
30 0.09884123504161835 0.05 0.012755265459418297
31 0.09561759978532791 0.05 0.011936824768781662
32 0.09259409457445145 0.05 0.011193855665624142
33 0.08974125236272812 0.05 0.01051471196115017
34 0.08704596012830734 0.05 0.00989259872585535
35 0.0844995304942131 0.05 0.0093222726136446
36 0.08208035677671432 0.05 0.008796129375696182
37 0.07977689057588577 0.05 0.00830935500562191
38 0.07758192718029022 0.05 0.007858403027057648
39 0.07548977434635162 0.05 0.007440281566232443
40 0.07348718494176865 0.05 0.007050767075270414
41 0.07156805694103241 0.05 0.006687312386929989
42 0.06972694396972656 0.05 0.006347670219838619
43 0.06796292215585709 0.05 0.006030553951859474
44 0.06626293063163757 0.05 0.005732636898756027
45 0.06462980806827545 0.05 0.005453544668853283
46 0.06305822730064392 0.05 0.005191545933485031
47 0.06153636798262596 0.05 0.004943981766700745
48 0.060076020658016205 0.05 0.004712110385298729
49 0.05865901708602905 0.05 0.004492443986237049
50 0.05729115754365921 0.05 0.0042853704653680325
51 0.05597367137670517 0.05 0.004090540576726198
52 0.05469448119401932 0.05 0.003905711229890585
53 0.05346024036407471 0.05 0.0037314267829060555
54 0.05225970596075058 0.05 0.00356571888551116
55 0.051101673394441605 0.05 0.0034094424918293953
56 0.04997146129608154 0.05 0.0032602972351014614
57 0.048887088894844055 0.05 0.0031203366816043854
58 0.047830190509557724 0.05 0.002986876992508769
59 0.04680401086807251 0.05 0.002860087202861905
60 0.04580945521593094 0.05 0.002739828545600176
61 0.04484179988503456 0.05 0.0026253019459545612
62 0.04390186071395874 0.05 0.0025163963437080383
63 0.04298871010541916 0.05 0.0024128034710884094
64 0.0421045683324337 0.05 0.0023145764134824276
65 0.041244566440582275 0.05 0.0022209901362657547
66 0.040409039705991745 0.05 0.002131916582584381
67 0.03959698602557182 0.05 0.0020470921881496906
68 0.03880327567458153 0.05 0.001965847797691822
69 0.0380311980843544 0.05 0.001888396218419075
70 0.03728945180773735 0.05 0.0018154534045606852
71 0.036554861813783646 0.05 0.0017446305137127638
72 0.03584672510623932 0.05 0.0016776917036622763
73 0.03516002371907234 0.05 0.0016140294028446078
74 0.03448488935828209 0.05 0.0015526402276009321
75 0.03383246064186096 0.05 0.0014944461872801185
76 0.033191945403814316 0.05 0.0014383962843567133
77 0.032569050788879395 0.05 0.0013849156675860286
78 0.031967684626579285 0.05 0.0013342448510229588
79 0.03137717768549919 0.05 0.0012854075757786632
80 0.03080226108431816 0.05 0.001238734694197774
81 0.030241001397371292 0.05 0.0011940032709389925
82 0.02969430945813656 0.05 0.0011512234341353178
83 0.029162432998418808 0.05 0.001110351993702352
84 0.028642283752560616 0.05 0.0010710959322750568
85 0.02813483402132988 0.05 0.0010334794642403722
86 0.027640271931886673 0.05 0.0009974652202799916
87 0.027155131101608276 0.05 0.0009627576218917966
88 0.026682553812861443 0.05 0.0009295397321693599
89 0.02622404880821705 0.05 0.0008978683617897332
90 0.02577284350991249 0.05 0.0008672369876876473
91 0.025331534445285797 0.05 0.000837791885714978
92 0.02490507811307907 0.05 0.0008098208345472813
93 0.02448742836713791 0.05 0.0007828876841813326
94 0.024077827110886574 0.05 0.0007569160079583526
95 0.02367679588496685 0.05 0.0007319121505133808
96 0.023286212235689163 0.05 0.0007079634815454483
97 0.02290334552526474 0.05 0.0006848744815215468
98 0.02252926304936409 0.05 0.0006626849062740803
99 0.022165905684232712 0.05 0.0006414813688024879

  0%|                                                                                                                                                                                                                                                                                                                                                                              | 0/10 [00:41<?, ?it/s]
