
  0%|                                                                                                                       | 0/10 [00:00<?, ?it/s]
0, 0.1364392638206482
1, 0.1364392638206482
2, 0.12979243695735931
3, 0.11694800108671188
4, 0.09893627464771271
5, 0.07756038755178452
6, 0.055496182292699814
7, 0.038786571472883224
8, 0.027091030031442642
9, 0.019567690789699554
10, 0.015127412974834442
11, 0.01271190494298935
12, 0.01147474255412817
13, 0.010833373293280602
14, 0.010430842638015747
15, 0.010070567950606346
16, 0.009662607684731483
17, 0.009177803993225098
18, 0.008622939698398113
19, 0.008024577051401138
20, 0.007409823592752218
21, 0.006804024334996939
22, 0.0062263282015919685
23, 0.005691940896213055
24, 0.0052092960104346275
25, 0.004781192168593407
26, 0.004408461041748524
27, 0.004086622036993504
28, 0.0038107577711343765
29, 0.003574308706447482
30, 0.003371691331267357
31, 0.003197041107341647
32, 0.0030457149259746075
33, 0.002913905307650566
34, 0.00279847695492208
35, 0.0026968903839588165
36, 0.0026075406931340694
37, 0.0025293398648500443
38, 0.002460886724293232
39, 0.0024020280689001083
40, 0.0023515233770012856
41, 0.0023089672904461622
42, 0.0022740140557289124
43, 0.002245561219751835
44, 0.002223620191216469
45, 0.0022071492858231068
46, 0.002195431385189295
47, 0.002187706297263503

 10%|███████████                                                                                                    | 1/10 [00:18<02:44, 18.22s/it]
49, 0.002181306714192033
0 2.4727749824523926 0.05 7.61187219619751
1 2.305781602859497 0.05 6.6184844970703125
2 2.1294338703155518 0.05 5.6448259353637695
3 1.9182331562042236 0.05 4.580628395080566
4 1.6305270195007324 0.05 3.3096206188201904
5 1.2720904350280762 0.05 2.014458179473877
6 0.8867413401603699 0.05 0.9788500070571899
7 0.6099400520324707 0.05 0.4631231725215912
8 0.4836769998073578 0.05 0.2912279963493347
9 0.39812710881233215 0.05 0.19731757044792175
inversion time : 15.99942421913147
0, 0.1123598963022232
1, 0.1123598963022232
2, 0.10478781163692474
3, 0.09046933054924011
4, 0.0712454542517662
5, 0.05020029470324516
6, 0.03146948665380478
7, 0.02033764123916626
8, 0.014883007854223251
9, 0.012929700314998627
10, 0.012753957882523537
11, 0.013247590512037277
12, 0.013819670304656029
13, 0.014212491922080517
14, 0.014346885494887829
15, 0.014237023890018463
16, 0.013929340057075024
17, 0.013479693792760372
18, 0.012940841726958752
19, 0.01235225796699524
20, 0.011743500828742981
21, 0.011133204214274883
22, 0.010535947978496552
23, 0.009960944764316082
24, 0.009413544088602066
25, 0.008898722007870674
26, 0.008419305086135864
27, 0.007976767607033253
28, 0.00757201761007309
29, 0.007205603178590536
30, 0.006876144092530012
31, 0.00658191554248333
32, 0.006320582702755928
33, 0.006089641712605953
34, 0.005886672995984554
35, 0.005709114484488964
36, 0.005554646253585815
37, 0.005420680623501539
38, 0.005305568687617779
39, 0.005207383073866367
40, 0.00512471329420805
41, 0.005056187976151705
42, 0.005000271834433079
43, 0.00495558325201273
44, 0.00492117740213871
45, 0.004895535763353109
46, 0.0048774247989058495
47, 0.004865753464400768
48, 0.0048590414226055145
49, 0.004856032785028219

 20%|██████████████████████▏                                                                                        | 2/10 [00:35<02:23, 17.94s/it]
1 2.6726465225219727 0.05 7.121176719665527
2 2.496267318725586 0.05 6.212278366088867
3 2.298208475112915 0.05 5.265596389770508
4 2.061105251312256 0.05 4.235152244567871
5 1.7418488264083862 0.05 3.0247511863708496
6 1.3550138473510742 0.05 1.8304431438446045
7 0.984906017780304 0.05 0.967070996761322
8 0.7966892123222351 0.05 0.6327710747718811
9 0.6750203371047974 0.05 0.45425787568092346
inversion time : 15.967268466949463
0, 0.09775816649198532
1, 0.09775816649198532
2, 0.09261509776115417
3, 0.08272559940814972
4, 0.06901426613330841
5, 0.05310672149062157
6, 0.03751777112483978
7, 0.026805555447936058
8, 0.020172730088233948
9, 0.016283338889479637
10, 0.013950983062386513
11, 0.012393809854984283
12, 0.011184891685843468
13, 0.010130362585186958
14, 0.009164656512439251
15, 0.00827824603766203
16, 0.0074769011698663235
17, 0.006764783523976803
18, 0.006139551755040884
19, 0.005596444010734558
20, 0.005129389464855194
21, 0.004732606932520866
22, 0.004399766679853201
23, 0.004124069586396217
24, 0.0038959835655987263
25, 0.0037059239111840725
26, 0.003544048173353076
27, 0.003401904832571745
28, 0.0032726358622312546
29, 0.0031517266761511564
30, 0.003036568406969309
31, 0.002926405519247055
32, 0.0028212671168148518
33, 0.0027218032628297806
34, 0.0026289287488907576
35, 0.0025433755945414305
36, 0.002465818077325821
37, 0.002396386582404375
38, 0.0023352489806711674
39, 0.002282211557030678
40, 0.002237069420516491
41, 0.0021993869449943304
42, 0.0021683922968804836
43, 0.00214358395896852
44, 0.0021243055816739798
45, 0.0021100405137985945
46, 0.002099929843097925
47, 0.0020933523774147034
48, 0.002089599147439003
49, 0.002087898086756468
0 2.6263818740844727 0.05 8.744855880737305
1 2.4673707485198975 0.05 7.718015670776367
2 2.295250654220581 0.05 6.678778648376465

 30%|█████████████████████████████████▎                                                                             | 3/10 [00:53<02:05, 17.92s/it]
4 1.640834093093872 0.05 3.4132347106933594
5 1.1903167963027954 0.05 1.7962298393249512
6 0.8549549579620361 0.05 0.9266661405563354
7 0.6396291255950928 0.05 0.5186725854873657
8 0.5149846076965332 0.05 0.3362213671207428
9 0.43813765048980713 0.05 0.24336490035057068
inversion time : 16.017139434814453
0, 0.09936030954122543
1, 0.09936030954122543
2, 0.09243923425674438
3, 0.07954049110412598
4, 0.0627114325761795
5, 0.04515601322054863
6, 0.03059551678597927
7, 0.02251427434384823
8, 0.01852930709719658
9, 0.016697265207767487
10, 0.015801869332790375
11, 0.015204082243144512
12, 0.014630915597081184
13, 0.014004647731781006
14, 0.01333616953343153
15, 0.012661992572247982
16, 0.012015877291560173
17, 0.011418970301747322
18, 0.010880782268941402
19, 0.010400552302598953
20, 0.009971562772989273
21, 0.009584961459040642
22, 0.009233306162059307
23, 0.008909470401704311
24, 0.008608784526586533
25, 0.00832790695130825
26, 0.008064738474786282
27, 0.007817788980901241
28, 0.007587066851556301
29, 0.007372821681201458
30, 0.007174908183515072
31, 0.006992909125983715
32, 0.006826696451753378
33, 0.00667562335729599
34, 0.006539351772516966
35, 0.006417322903871536
36, 0.006308857351541519
37, 0.006213285028934479
38, 0.006129703484475613
39, 0.006057485938072205
40, 0.005996095947921276
41, 0.005944489501416683
42, 0.005902118049561977
43, 0.005868022330105305
44, 0.005841477774083614
45, 0.005821715574711561
46, 0.005807607434689999
47, 0.005798548460006714
48, 0.005793273448944092
49, 0.0057908920571208
0 2.7283079624176025 0.05 8.804620742797852
1 2.5730364322662354 0.05 7.830974578857422
2 2.408393144607544 0.05 6.8608622550964355
3 2.223391056060791 0.05 5.84730339050293

 40%|████████████████████████████████████████████▍                                                                  | 4/10 [01:11<01:47, 17.86s/it]
5 1.6711829900741577 0.05 3.3034818172454834
6 1.1958683729171753 0.05 1.691572904586792
7 0.879776656627655 0.05 0.9155219793319702
8 0.7218123078346252 0.05 0.6162720918655396
9 0.6099063158035278 0.05 0.43999743461608887
inversion time : 16.050546169281006
0, 0.12813778221607208
1, 0.12813778221607208
2, 0.12089903652667999
3, 0.10838153213262558
4, 0.09137164056301117
5, 0.07178463786840439
6, 0.05270238220691681
7, 0.039278168231248856
8, 0.030561774969100952
9, 0.025172874331474304
10, 0.021757569164037704
11, 0.019524691626429558
12, 0.01792912557721138
13, 0.01663256250321865
14, 0.015551222488284111
15, 0.014601933769881725
16, 0.013721868395805359
17, 0.012910190038383007
18, 0.012162121944129467
19, 0.011476583778858185
20, 0.010838142596185207
21, 0.010250668041408062
22, 0.00972000788897276
23, 0.009243957698345184
24, 0.00881910603493452
25, 0.008433103561401367
26, 0.008092634379863739
27, 0.007791466545313597
28, 0.007518754340708256
29, 0.00727655366063118
30, 0.007064457982778549
31, 0.0068738460540771484
32, 0.00669951131567359
33, 0.0065430523827672005
34, 0.006402425467967987
35, 0.006275868974626064
36, 0.006162900477647781
37, 0.006062954664230347
38, 0.0059756869450211525
39, 0.005899499170482159
40, 0.005834135226905346
41, 0.00577940046787262
42, 0.005733617581427097
43, 0.005697406828403473
44, 0.005668999161571264
45, 0.0056472523137927055
46, 0.005632221233099699
47, 0.0056221336126327515
48, 0.005616405047476292
49, 0.005613700952380896
0 2.534672260284424 0.05 8.921934127807617
1 2.3585972785949707 0.05 7.725434303283691
2 2.137146472930908 0.05 6.342842102050781
3 1.8321138620376587 0.05 4.661441802978516
4 1.4464645385742188 0.05 2.905567169189453
5 1.0327112674713135 0.05 1.4810618162155151
6 0.7202489972114563 0.05 0.7204115986824036
7 0.5134192109107971 0.05 0.36606621742248535
 50%|███████████████████████████████████████████████████████▌                                                       | 5/10 [01:29<01:29, 17.85s/it]Token indices sequence length is longer than the specified maximum sequence length for this model (93 > 77). Running this sequence through the model will result in indexing errors
The following part of your input was truncated because CLIP can only handle sequences up to 77 tokens: ['morbacher, female, feminine, art deco, new baroque, intricate linework']
The following part of your input was truncated because CLIP can only handle sequences up to 77 tokens: ['morbacher, female, feminine, art deco, new baroque, intricate linework']
9 0.36256128549575806 0.05 0.18254847824573517
inversion time : 16.04928469657898
0, 0.1418573558330536
1, 0.1418573558330536
2, 0.13336299359798431
3, 0.11708736419677734
4, 0.09461738914251328
5, 0.06890299916267395
6, 0.044259510934352875
7, 0.027871057391166687
8, 0.01849466934800148
9, 0.01408241968601942
10, 0.012625381350517273
11, 0.012657998129725456
12, 0.013285063207149506
13, 0.014013069681823254
14, 0.014594925567507744
15, 0.014939527027308941
16, 0.015027664601802826
17, 0.014877885580062866
18, 0.01453055627644062
19, 0.014030138961970806
20, 0.01342445146292448
21, 0.012755068950355053
22, 0.012056656181812286
23, 0.011357730254530907
24, 0.010678248479962349
25, 0.010035458020865917
26, 0.009437703527510166
27, 0.008890300057828426
28, 0.008394880220293999
29, 0.007950758561491966
30, 0.007555901072919369
31, 0.007206277456134558
32, 0.006898521911352873
33, 0.006628025323152542
34, 0.006391193252056837
35, 0.006184693425893784
36, 0.006005465053021908
37, 0.005850963294506073
38, 0.00571838766336441
39, 0.005605609621852636
40, 0.0055107977241277695
41, 0.005432511679828167
42, 0.005368489306420088
43, 0.005317998584359884
44, 0.00527856033295393
45, 0.005249670706689358
46, 0.005229162983596325
47, 0.005216076038777828
48, 0.005208659917116165
49, 0.005205151624977589
0 2.5204825401306152 0.05 5.070681095123291
1 2.3746941089630127 0.05 4.501053333282471
2 2.222947120666504 0.05 3.944183349609375
3 2.047907590866089 0.05 3.347491979598999
4 1.797448754310608 0.05 2.578765630722046
5 1.4025936126708984 0.05 1.5702273845672607
6 0.9885234236717224 0.05 0.7799608707427979
7 0.7498022317886353 0.05 0.44873738288879395
8 0.6154922842979431 0.05 0.3023737370967865
9 0.5226764678955078 0.05 0.21805435419082642
inversion time : 16.0612313747406
 60%|██████████████████████████████████████████████████████████████████▌                                            | 6/10 [01:47<01:11, 17.85s/it]
0, 0.10374041646718979
1, 0.10374041646718979
2, 0.09758727252483368
3, 0.08598975837230682
4, 0.07052787393331528
5, 0.053662966936826706
6, 0.03822498023509979
7, 0.027918513864278793
8, 0.021264981478452682
9, 0.017008813098073006
10, 0.014256379567086697
11, 0.012416522018611431
12, 0.011118571273982525
13, 0.010137535631656647
14, 0.009340470656752586
15, 0.008653044700622559
16, 0.008035952225327492
17, 0.00747080659493804
18, 0.006949965842068195
19, 0.0064717805944383144
20, 0.006035669706761837
21, 0.005640377290546894
22, 0.005284726619720459
23, 0.004965874366462231
24, 0.004681311547756195
25, 0.004427358973771334
26, 0.0042007556185126305
27, 0.003998459316790104
28, 0.003817558754235506
29, 0.0036554336547851562
30, 0.003510060254484415
31, 0.003379631554707885
32, 0.003262762911617756
33, 0.0031581511721014977
34, 0.003064865944907069
35, 0.0029820632189512253
36, 0.0029087800066918135
37, 0.0028445618227124214
38, 0.0027887094765901566
39, 0.0027406816370785236
40, 0.00269978865981102
41, 0.0026656179688870907
42, 0.002637639408931136
43, 0.002615146106109023
44, 0.002597728744149208
45, 0.0025847111828625202
46, 0.0025755586102604866
47, 0.002569561591371894
48, 0.0025661641266196966
49, 0.0025646300055086613
0 2.0895986557006836 0.05 7.84366512298584
1 1.9130192995071411 0.05 6.574035167694092
2 1.7105203866958618 0.05 5.255931854248047
3 1.4398298263549805 0.05 3.724050998687744
4 1.062631607055664 0.05 2.02842378616333
5 0.7049477100372314 0.05 0.8927031755447388
6 0.5638025403022766 0.05 0.5710147023200989
7 0.47188740968704224 0.05 0.40000927448272705
8 0.4081154763698578 0.05 0.2991984784603119
9 0.3632844090461731 0.05 0.2370755672454834

 70%|█████████████████████████████████████████████████████████████████████████████▋                                 | 7/10 [02:05<00:53, 17.87s/it]
0, 0.06338362395763397
1, 0.06338362395763397
2, 0.059285782277584076
3, 0.051482927054166794
4, 0.04086744040250778
5, 0.028931915760040283
6, 0.017769448459148407
7, 0.010659746825695038
8, 0.006904024630784988
9, 0.0054431795142591
10, 0.0052377814427018166
11, 0.005522394087165594
12, 0.005858070217072964
13, 0.0060542854480445385
14, 0.006056935992091894
15, 0.005867906846106052
16, 0.005558967590332031
17, 0.005201499443501234
18, 0.004842136986553669
19, 0.004506484605371952
20, 0.0042062317952513695
21, 0.003943031653761864
22, 0.0037135209422558546
23, 0.0035113038029521704
24, 0.0033303736709058285
25, 0.003165242960676551
26, 0.003012492787092924
27, 0.002869798569008708
28, 0.0027360860258340836
29, 0.002611277624964714
30, 0.0024953936226665974
31, 0.002388676395639777
32, 0.002291053533554077
33, 0.00220258510671556
34, 0.00212292093783617
35, 0.002051957882940769
36, 0.001989116659387946
37, 0.0019340203143656254
38, 0.0018862290307879448
39, 0.001845235819928348
40, 0.0018105704803019762
41, 0.001781653962098062
42, 0.001758023165166378
43, 0.0017391968285664916
44, 0.0017245691269636154
45, 0.001713731326162815
46, 0.0017061529215425253
47, 0.0017011932795867324
48, 0.0016983988462015986
49, 0.001697114435955882
0 1.879491925239563 0.05 4.9178290367126465
1 1.645033359527588 0.05 3.767401933670044
2 1.369637131690979 0.05 2.611581325531006
3 1.0138369798660278 0.05 1.430964469909668
4 0.7742130756378174 0.05 0.8344753980636597
5 0.6272650361061096 0.05 0.5477654933929443
6 0.518835723400116 0.05 0.37475916743278503
7 0.45015498995780945 0.05 0.28210878372192383
8 0.4036158323287964 0.05 0.22679263353347778
9 0.3663431406021118 0.05 0.1868394911289215

 80%|████████████████████████████████████████████████████████████████████████████████████████▊                      | 8/10 [02:23<00:35, 17.89s/it]
0, 0.11024387925863266
1, 0.11024387925863266
2, 0.10232817381620407
3, 0.08744712918996811
4, 0.06778556108474731
5, 0.04695385694503784
6, 0.029393356293439865
7, 0.019669651985168457
8, 0.015288934111595154
9, 0.013957254588603973
10, 0.014042055234313011
11, 0.014572765678167343
12, 0.015058021061122417
13, 0.015300008468329906
14, 0.015256177634000778
15, 0.014959199354052544
16, 0.014466765336692333
17, 0.013836812227964401
18, 0.013123664073646069
19, 0.01237407885491848
20, 0.011626127175986767
21, 0.010909299366176128
22, 0.010243583470582962
23, 0.009641493670642376
24, 0.009107787162065506
25, 0.008640973828732967
26, 0.00823565199971199
27, 0.007884366437792778
28, 0.00757931312546134
29, 0.007312428206205368
30, 0.007076953537762165
31, 0.006867098622024059
32, 0.0066787367686629295
33, 0.006508852355182171
34, 0.00635514548048377
35, 0.006216454319655895
36, 0.006091737654060125
37, 0.005980499088764191
38, 0.0058822124265134335
39, 0.005796447396278381
40, 0.0057225823402404785
41, 0.005660162772983313
42, 0.005608424544334412
43, 0.005566661711782217
44, 0.005534041207283735
45, 0.005509551148861647
46, 0.005492222961038351
47, 0.0054809520952403545
48, 0.005474435165524483
49, 0.0054715219885110855
0 2.4768714904785156 0.05 6.900729656219482
1 2.3275575637817383 0.05 6.093809604644775
2 2.1729772090911865 0.05 5.311269760131836
3 1.9969173669815063 0.05 4.485471725463867
4 1.7632057666778564 0.05 3.4969873428344727
5 1.4317275285720825 0.05 2.305731773376465
6 1.1258960962295532 0.05 1.425885558128357
7 0.9138036966323853 0.05 0.9392774105072021
8 0.7698187828063965 0.05 0.6665996313095093
9 0.6611321568489075 0.05 0.4916597604751587

 90%|███████████████████████████████████████████████████████████████████████████████████████████████████▉           | 9/10 [02:41<00:17, 17.88s/it]
0, 0.09578216075897217
1, 0.09578216075897217
2, 0.0897919163107872
3, 0.07837467640638351
4, 0.0627836138010025
5, 0.04522760957479477
6, 0.029009535908699036
7, 0.019084742292761803
8, 0.014235720038414001
9, 0.012560930103063583
10, 0.01232871226966381
11, 0.012415903620421886
12, 0.01231346558779478
13, 0.011899027973413467
14, 0.011246259324252605
15, 0.01047526951879263
16, 0.009696517139673233
17, 0.00898139737546444
18, 0.008360996842384338
19, 0.007841871120035648
20, 0.007413086947053671
21, 0.007056356407701969
22, 0.0067518032155931
23, 0.006484072655439377
24, 0.006240840069949627
25, 0.006013893987983465
26, 0.005797869525849819
27, 0.005592500790953636
28, 0.005398742854595184
29, 0.005217235069721937
30, 0.0050480542704463005
31, 0.00489149522036314
32, 0.004747375380247831
33, 0.004616140387952328
34, 0.004497110843658447
35, 0.00438990443944931
36, 0.004294292535632849
37, 0.004209710750728846
38, 0.004135630559176207
39, 0.004071410279721022
40, 0.004016564227640629
41, 0.003970400895923376
42, 0.003932350315153599
43, 0.0039017642848193645
44, 0.0038778227753937244
45, 0.003859903197735548
46, 0.0038472507148981094
47, 0.003838983131572604
48, 0.003834262490272522
49, 0.0038321304600685835
0 3.1524477005004883 0.05 7.9965386390686035
1 2.9638195037841797 0.05 7.068215370178223
2 2.771139621734619 0.05 6.179068565368652
3 2.570645809173584 0.05 5.317294597625732
4 2.354158639907837 0.05 4.459413528442383
5 2.09279203414917 0.05 3.5241830348968506
6 1.7483246326446533 0.05 2.4595205783843994
7 1.321433186531067 0.05 1.4050657749176025
8 0.978299081325531 0.05 0.7701042890548706
9 0.810939610004425 0.05 0.529155433177948

100%|██████████████████████████████████████████████████████████████████████████████████████████████████████████████| 10/10 [02:58<00:00, 17.89s/it]