
  0%|                                                                                                                                                                                                                                                                                            | 0/10 [00:00<?, ?it/s]
0, 0.1364392638206482
1, 0.1364392638206482
2, 0.1297924518585205
3, 0.11694815009832382
4, 0.09893614053726196
5, 0.07756038010120392
6, 0.055496178567409515
7, 0.03876972198486328
8, 0.027034273371100426
9, 0.01947089098393917
10, 0.015016417019069195
11, 0.012623665854334831
12, 0.011442391201853752
13, 0.010875608772039413
14, 0.010549727827310562
15, 0.01025569997727871
16, 0.00988958403468132
17, 0.009420173242688179
18, 0.008856921456754208
19, 0.008228673599660397
20, 0.007568547036498785
21, 0.00691108126193285
22, 0.006286114454269409
23, 0.005720379762351513
24, 0.005229274742305279
25, 0.0048165228217840195
26, 0.00447991443797946
27, 0.004211463965475559
28, 0.0039987158961594105
29, 0.0038264687173068523
30, 0.003680297639220953
31, 0.0035474186297506094
32, 0.003417201340198517
33, 0.003282868303358555
34, 0.0031407084316015244
35, 0.002990140113979578
36, 0.0028320427518337965
37, 0.002669656416401267
38, 0.0025066258385777473
39, 0.0023467678111046553
40, 0.0021939906291663647
41, 0.0020512063056230545
42, 0.0019205384887754917
43, 0.0018031526124104857
44, 0.0016988677671179175
45, 0.0016072040889412165
46, 0.0015266182599589229
47, 0.001455412246286869
48, 0.0013916909229010344
49, 0.0013336434494704008
50, 0.0012796407099813223
51, 0.0012289176229387522
52, 0.0011804855894297361
53, 0.0011342385550960898
54, 0.001090028090402484
55, 0.001048058271408081
56, 0.0010083767119795084
57, 0.0009713098406791687
58, 0.0009367647580802441
59, 0.0009048181818798184
60, 0.0008751848945394158
61, 0.000847590621560812
62, 0.0008217876311391592
63, 0.0007975040934979916
64, 0.0007744673639535904
65, 0.0007525102118961513
66, 0.0007314382819458842
67, 0.0007112824823707342
68, 0.0006919689476490021
69, 0.0006735631613992155
70, 0.0006560722249560058
71, 0.0006396147073246539
72, 0.0006241520750336349
73, 0.0006096845027059317
74, 0.0005961940623819828
75, 0.0005835798801854253
76, 0.0005718157044611871
77, 0.0005607766797766089
78, 0.0005503742722794414
79, 0.000540528038982302
80, 0.0005311938584782183
81, 0.0005222916952334344
82, 0.0005137765547260642
83, 0.0005056280642747879
84, 0.0004978476790711284
85, 0.0004903869121335447
86, 0.00048326593241654336
87, 0.0004764408222399652
88, 0.00046992694842629135
89, 0.00046370094059966505
90, 0.0004577368963509798
91, 0.00045203088666312397
92, 0.00044654644443653524
93, 0.0004412865382619202
94, 0.00043623929377645254
95, 0.00043138652108609676
96, 0.0004266935575287789
97, 0.0004221889830660075
98, 0.0004178192466497421
99, 0.00041359683382324874
100, 0.0004095255571883172
101, 0.0004055767203681171
102, 0.0004017550381831825
103, 0.0003980425535701215
104, 0.0003944424679502845
105, 0.00039093662053346634
106, 0.0003875643014907837
107, 0.0003842679725494236
108, 0.00038108648732304573
109, 0.0003779788385145366
110, 0.00037499284371733665
111, 0.0003720858076121658
112, 0.0003692558384500444
113, 0.0003665038093458861
114, 0.0003638343187049031
115, 0.00036122044548392296
116, 0.0003586895181797445
117, 0.00035621499409899116
118, 0.00035379835753701627
119, 0.0003514566633384675
120, 0.00034915783908218145
121, 0.00034692834015004337
122, 0.00034474232234060764
123, 0.00034262356348335743
124, 0.0003405463066883385
125, 0.0003385216696187854
126, 0.0003365443553775549
127, 0.0003346230951137841
128, 0.000332750118104741
129, 0.0003309134335722774
130, 0.000329117028741166
131, 0.0003273712645750493
132, 0.0003256516938563436
133, 0.0003239864017814398
134, 0.0003223582752980292
135, 0.0003207501722499728
136, 0.0003192026342730969
137, 0.00031767896143719554
138, 0.000316186691634357
139, 0.00031473353737965226
140, 0.00031331295031122863
141, 0.00031192845199257135
142, 0.00031057000160217285
143, 0.0003092354745604098
144, 0.0003079341258853674
145, 0.0003066581557504833
146, 0.0003054204280488193
147, 0.000304202432744205
148, 0.00030300713842734694
149, 0.0003018552379216999
150, 0.0003007233317475766
151, 0.0002996110124513507
152, 0.00029852462466806173
153, 0.0002974789822474122
154, 0.0002964490558952093
155, 0.0002954454394057393
156, 0.00029445262043736875
157, 0.00029349440592341125
158, 0.0002925428270827979
159, 0.0002916337689384818
160, 0.0002907399320974946
161, 0.0002898673992604017
162, 0.000289007555693388
163, 0.0002881727123167366
164, 0.00028736397507600486
165, 0.00028657272923737764
166, 0.0002857940853573382
167, 0.0002850411692634225
168, 0.00028430839302018285
169, 0.0002835894702002406
170, 0.00028289054171182215
171, 0.00028221082175150514
172, 0.00028155476320534945
173, 0.00028090551495552063
174, 0.0002802829258143902
175, 0.00027966988272964954
176, 0.00027906984905712306
177, 0.0002784903044812381
178, 0.0002779195783659816
179, 0.0002773772575892508
180, 0.0002768523700069636
181, 0.00027632113778963685
182, 0.0002758179325610399
183, 0.0002753289300017059
184, 0.00027485034661367536
185, 0.00027439382392913103
186, 0.00027393829077482224
187, 0.000273508601821959
188, 0.0002730904961936176
189, 0.000272675184533
190, 0.00027228277758695185
191, 0.00027190125547349453
192, 0.00027153262635692954
193, 0.0002711658307816833
194, 0.000270820630248636
195, 0.0002704870421439409
196, 0.0002701659977901727
197, 0.0002698544994927943
198, 0.0002695564762689173
199, 0.0002692638954613358
200, 0.00026898665237240493
201, 0.00026871159207075834
202, 0.0002684585633687675
203, 0.0002682139165699482
204, 0.00026797325699590147
205, 0.00026774645084515214
206, 0.0002675209834706038
207, 0.00026731292018666863
208, 0.00026711352984420955
209, 0.0002669175446499139
210, 0.0002667477529030293
211, 0.0002665668143890798
212, 0.00026639713905751705
213, 0.00026623622397892177
214, 0.0002660822938196361
215, 0.00026594658265821636
216, 0.0002658027224242687
217, 0.00026568921748548746
218, 0.00026555999647825956
219, 0.000265446346020326
220, 0.00026534294011071324
221, 0.0002652478578966111
222, 0.0002651483519002795
223, 0.00026506202993914485
224, 0.0002649811503943056
225, 0.00026490085292607546
226, 0.0002648350200615823
227, 0.0002647683140821755
228, 0.00026470288867130876
229, 0.00026465574046596885
230, 0.0002646044595167041
231, 0.00026455422630533576
232, 0.0002645164495334029
233, 0.00026447890559211373
234, 0.0002644421183504164
235, 0.00026441432419233024
236, 0.0002643893822096288
237, 0.0002643659245222807
238, 0.0002643437765073031
239, 0.0002643279731273651
240, 0.0002643223269842565
241, 0.0002643016050569713
242, 0.00026429130230098963
243, 0.00026429089484736323
244, 0.0002642837353050709
245, 0.00026427936973050237
246, 0.00026427643024362624
247, 0.0002642700565047562
248, 0.00026427197735756636
249, 0.000264270871412009
0 2.485424518585205 0.05 7.788259983062744
1 2.330211877822876 0.05 6.845893859863281
2 2.167182445526123 0.05 5.921478748321533
3 1.9644476175308228 0.05 4.865418434143066
4 1.684632658958435 0.05 3.5780773162841797
5 1.2816693782806396 0.05 2.0710535049438477
6 0.8436723947525024 0.05 0.8974018096923828
7 0.5960094332695007 0.05 0.4478633403778076
8 0.49013790488243103 0.05 0.30288368463516235
9 0.40627744793891907 0.05 0.20810604095458984
10 0.34743732213974 0.05 0.1521921306848526
11 0.30359184741973877 0.05 0.11620356887578964
12 0.26977378129959106 0.05 0.0917569100856781
13 0.24313458800315857 0.05 0.07453028857707977
14 0.22158020734786987 0.05 0.061901502311229706
15 0.20394352078437805 0.05 0.05243957042694092
16 0.18925446271896362 0.05 0.04515766724944115
17 0.17684079706668854 0.05 0.039427950978279114
18 0.16619838774204254 0.05 0.034825146198272705
19 0.15696032345294952 0.05 0.031061261892318726
20 0.14882691204547882 0.05 0.027925582602620125
21 0.14156337082386017 0.05 0.025266269221901894
22 0.13501493632793427 0.05 0.022982798516750336
23 0.12908098101615906 0.05 0.021006986498832703
24 0.1236552968621254 0.05 0.01927812397480011
25 0.11867300420999527 0.05 0.017755918204784393
26 0.11408326029777527 0.05 0.01640903949737549
27 0.10983392596244812 0.05 0.015209407545626163
28 0.1058960109949112 0.05 0.014138342812657356
29 0.10222078114748001 0.05 0.01317400112748146
30 0.09878392517566681 0.05 0.012303023599088192
31 0.09556636214256287 0.05 0.011514614336192608
32 0.09253771603107452 0.05 0.010796347633004189
33 0.08969435840845108 0.05 0.01014307327568531
34 0.08700282126665115 0.05 0.009543460793793201
35 0.0844530463218689 0.05 0.00899228174239397
36 0.0820295438170433 0.05 0.008483593352138996
37 0.07973792403936386 0.05 0.008016211912035942
38 0.07754450291395187 0.05 0.007581259589642286
39 0.07545186579227448 0.05 0.007177599240094423
40 0.07345543056726456 0.05 0.006802789866924286
41 0.07154589891433716 0.05 0.006453699432313442
42 0.0697208121418953 0.05 0.006128640845417976
43 0.06795445829629898 0.05 0.005822041071951389
44 0.066271111369133 0.05 0.005537169985473156
45 0.06464580446481705 0.05 0.005268900655210018
46 0.06308839470148087 0.05 0.0050180875696241856
47 0.06158919632434845 0.05 0.004782427102327347
48 0.06013380363583565 0.05 0.004559074528515339
49 0.05873550847172737 0.05 0.004349514376372099
50 0.05738721042871475 0.05 0.0041521163657307625
51 0.05608657747507095 0.05 0.003966040443629026
52 0.05482424423098564 0.05 0.0037895236164331436
53 0.05360400676727295 0.05 0.0036227114032953978
54 0.05242672190070152 0.05 0.0034653309267014265
55 0.05128851905465126 0.05 0.003316496964544058
56 0.050184547901153564 0.05 0.0031752604991197586
57 0.049110230058431625 0.05 0.00304076774045825
58 0.04807157814502716 0.05 0.002913507167249918
59 0.047067854553461075 0.05 0.0027931102085858583
60 0.04608367756009102 0.05 0.0026775249280035496
61 0.04514419287443161 0.05 0.002569467294961214
62 0.04422219097614288 0.05 0.002465584082528949
63 0.04333018139004707 0.05 0.002367120236158371
64 0.04246306046843529 0.05 0.002273326739668846
65 0.04161958023905754 0.05 0.0021839099936187267
66 0.040793657302856445 0.05 0.002098092343658209
67 0.04000451788306236 0.05 0.002017703838646412
68 0.03922190144658089 0.05 0.001939530367963016
69 0.038468483835458755 0.05 0.0018657329492270947
70 0.037734635174274445 0.05 0.001795227755792439
71 0.03701914846897125 0.05 0.0017277947627007961
72 0.03632542863488197 0.05 0.0016636453801766038
73 0.03564494103193283 0.05 0.0016018989263102412
74 0.03498534485697746 0.05 0.0015431622741743922
75 0.03434346988797188 0.05 0.001487057190388441
76 0.033711884170770645 0.05 0.0014328652760013938
77 0.03310180455446243 0.05 0.0013814738485962152
78 0.0325055830180645 0.05 0.0013321563601493835
79 0.031922630965709686 0.05 0.0012848034966737032
80 0.031355924904346466 0.05 0.0012395913945510983
81 0.030805477872490883 0.05 0.0011964517179876566
82 0.030263490974903107 0.05 0.0011547217145562172
83 0.02973807603120804 0.05 0.0011149748461320996
84 0.02922477014362812 0.05 0.001076816115528345
85 0.028720125555992126 0.05 0.0010399487800896168
86 0.028232647106051445 0.05 0.0010049454867839813
87 0.027751045301556587 0.05 0.0009709525038488209
88 0.0272865891456604 0.05 0.0009387236787006259
89 0.026826659217476845 0.05 0.0009073449764400721
90 0.02638137713074684 0.05 0.000877473852597177
91 0.025945456698536873 0.05 0.0008487151935696602
92 0.025517210364341736 0.05 0.0008209291845560074
93 0.02510046400129795 0.05 0.0007943334057927132
94 0.02469813823699951 0.05 0.0007690732600167394
95 0.024293283000588417 0.05 0.000744066433981061
96 0.02390216290950775 0.05 0.0007203004788607359
97 0.023524167016148567 0.05 0.0006976984441280365
98 0.02314944565296173 0.05 0.0006756479851901531
99 0.022781915962696075 0.05 0.0006543645868077874
100 0.022424515336751938 0.05 0.000633994466625154
101 0.022075174376368523 0.05 0.0006143948994576931
102 0.021733468398451805 0.05 0.0005955214146524668
103 0.021396640688180923 0.05 0.0005772055010311306
104 0.02107212133705616 0.05 0.0005598295829258859
105 0.02075224742293358 0.05 0.0005429621669463813
106 0.020430833101272583 0.05 0.0005262734484858811
107 0.020127028226852417 0.05 0.0005107384058646858
108 0.019824115559458733 0.05 0.0004954809555783868
109 0.01952504552900791 0.05 0.00048064382281154394
110 0.019235940650105476 0.05 0.0004665156011469662
111 0.018953537568449974 0.05 0.00045291829155758023
112 0.01867557503283024 0.05 0.00043973122956231236
113 0.018401747569441795 0.05 0.00042693072464317083
114 0.01813032664358616 0.05 0.00041442931978963315
115 0.017872614786028862 0.05 0.00040273135527968407
116 0.017611727118492126 0.05 0.00039105984615162015
117 0.017358751967549324 0.05 0.0003799060941673815
118 0.017110787332057953 0.05 0.00036912993527948856
119 0.01686631515622139 0.05 0.00035865732934325933
120 0.01662846840918064 0.05 0.0003486131608951837
121 0.016393765807151794 0.05 0.00033884160802699625
122 0.016167864203453064 0.05 0.0003295677015557885
123 0.015937210991978645 0.05 0.000320231425575912
124 0.01572205126285553 0.05 0.00031164323445409536
125 0.015503785572946072 0.05 0.0003030503576155752
126 0.015290158800780773 0.05 0.00029475640621967614
127 0.015077315270900726 0.05 0.0002866073336917907
128 0.014872548170387745 0.05 0.00027887531905435026
129 0.014674117788672447 0.05 0.00027148344088345766
130 0.014475701376795769 0.05 0.0002641913015395403
131 0.014278382994234562 0.05 0.00025703798746690154
132 0.014087534509599209 0.05 0.0002502126735635102
133 0.013900501653552055 0.05 0.00024361287069041282
134 0.013716206885874271 0.05 0.0002371960144955665
135 0.013536794111132622 0.05 0.00023103138664737344
136 0.01335853710770607 0.05 0.00022498684120364487
137 0.013181377202272415 0.05 0.00021905888570472598
138 0.01300929393619299 0.05 0.00021337658108677715
139 0.012841153889894485 0.05 0.00020789657719433308
140 0.012674692086875439 0.05 0.00020254155970178545
141 0.012513767927885056 0.05 0.0001974310725927353
142 0.012352638877928257 0.05 0.0001923795061884448
143 0.012192599475383759 0.05 0.00018742690735962242
144 0.012040908448398113 0.05 0.00018279225332662463
145 0.011887880973517895 0.05 0.00017817557090893388
146 0.011738847941160202 0.05 0.00017373618902638555
147 0.011589563451707363 0.05 0.00016934541054069996
148 0.01144406571984291 0.05 0.00016512011643499136
149 0.011301036924123764 0.05 0.00016101854271255434
150 0.011158815585076809 0.05 0.00015699127106927335
151 0.01102159172296524 0.05 0.00015315385826397687
152 0.010886704549193382 0.05 0.0001494280732003972
153 0.010754818096756935 0.05 0.00014582953008357435
154 0.01062024012207985 0.05 0.00014220274169929326
155 0.010491498745977879 0.05 0.00013877599849365652
156 0.010365581139922142 0.05 0.00013546485570259392
157 0.01023856457322836 0.05 0.0001321652962360531
158 0.010113957338035107 0.05 0.00012896786211058497
159 0.00999125000089407 0.05 0.0001258574629900977
160 0.009872907772660255 0.05 0.000122893659863621
161 0.00975860096514225 0.05 0.00012006443284917623
162 0.00964206364005804 0.05 0.00011721396003849804
163 0.009528400376439095 0.05 0.00011446672579040751
164 0.009417088702321053 0.05 0.00011180793808307499
165 0.009304702281951904 0.05 0.00010915515304077417
166 0.009195243008434772 0.05 0.00010660207772161812
167 0.009090282022953033 0.05 0.00010418231249786913
168 0.008984710089862347 0.05 0.00010177648800890893
169 0.008879686705768108 0.05 9.941104508470744e-05
170 0.008778571151196957 0.05 9.715987835079432e-05
171 0.008675304241478443 0.05 9.488744399277493e-05
172 0.008573552593588829 0.05 9.26746433833614e-05
173 0.008479099720716476 0.05 9.064393816515803e-05
174 0.008381661958992481 0.05 8.857262582750991e-05
175 0.008285827934741974 0.05 8.655877900309861e-05
176 0.008192766457796097 0.05 8.462533878628165e-05
177 0.008101691491901875 0.05 8.275431173387915e-05
178 0.00801082793623209 0.05 8.09084958746098e-05
179 0.007918569259345531 0.05 7.905562233645469e-05
180 0.007829574868083 0.05 7.72886342019774e-05
181 0.0077485591173172 0.05 7.569743320345879e-05
182 0.007658287882804871 0.05 7.394395652227104e-05
183 0.0075742341578006744 0.05 7.23297125659883e-05
184 0.00748866843059659 0.05 7.070472929626703e-05
185 0.0074059623293578625 0.05 6.915161793585867e-05
186 0.007331471424549818 0.05 6.776751251891255e-05
187 0.007247664034366608 0.05 6.622704677283764e-05
188 0.007169859018176794 0.05 6.481276068370789e-05
189 0.007091945502907038 0.05 6.341180414892733e-05
190 0.007016779389232397 0.05 6.207474507391453e-05
191 0.006940794177353382 0.05 6.0737598687410355e-05
192 0.00686435354873538 0.05 5.9407131629996e-05
193 0.006788888480514288 0.05 5.810808943351731e-05
194 0.0067174918949604034 0.05 5.689230965799652e-05
195 0.006647980306297541 0.05 5.572097870754078e-05
196 0.006578661501407623 0.05 5.456502185552381e-05
197 0.006508429069072008 0.05 5.340619100024924e-05
198 0.006439640652388334 0.05 5.228325244388543e-05
199 0.0063736336305737495 0.05 5.121692083775997e-05
200 0.006302931345999241 0.05 5.008694279240444e-05
201 0.006240271031856537 0.05 4.909600829705596e-05
202 0.0061706495471298695 0.05 4.8006615543272346e-05
203 0.006108356639742851 0.05 4.704224556917325e-05
204 0.006044640205800533 0.05 4.606597212841734e-05
205 0.005982490722090006 0.05 4.512355735641904e-05
206 0.005920895375311375 0.05 4.419916513143107e-05
207 0.0058596194721758366 0.05 4.328905924921855e-05
208 0.005800985265523195 0.05 4.242705108481459e-05
209 0.005741393659263849 0.05 4.1559847886674106e-05
210 0.005684736184775829 0.05 4.074365278938785e-05
211 0.005626864265650511 0.05 3.991831181338057e-05
212 0.0055698212236166 0.05 3.911305975634605e-05
213 0.005512184929102659 0.05 3.830776404356584e-05
214 0.0054580168798565865 0.05 3.75585732399486e-05
215 0.005405002273619175 0.05 3.683249087771401e-05
216 0.005346756894141436 0.05 3.604292942327447e-05
217 0.005293549038469791 0.05 3.532914706738666e-05
218 0.0052408757619559765 0.05 3.4629560104804114e-05
219 0.005190645344555378 0.05 3.396893953322433e-05
220 0.005136357620358467 0.05 3.326211299281567e-05
221 0.005085824057459831 0.05 3.261083838879131e-05
222 0.005036909133195877 0.05 3.198655758751556e-05
223 0.004986029118299484 0.05 3.1343603041023016e-05
224 0.004938884638249874 0.05 3.075367567362264e-05
225 0.004893507342785597 0.05 3.0191160476533696e-05
226 0.004842589143663645 0.05 2.9566137527581304e-05
227 0.004796946886926889 0.05 2.901142943301238e-05
228 0.004749756306409836 0.05 2.8443428163882345e-05
229 0.004703179933130741 0.05 2.788832352962345e-05
230 0.004656460136175156 0.05 2.7337011488270946e-05
231 0.004616896156221628 0.05 2.6874444301938638e-05
232 0.00457045529037714 0.05 2.633651274663862e-05
233 0.004528352525085211 0.05 2.5853525585262105e-05
234 0.00448407931253314 0.05 2.535045859985985e-05
235 0.004439996555447578 0.05 2.4854474759195e-05
236 0.0043962267227470875 0.05 2.4366854631807655e-05
237 0.004353811498731375 0.05 2.389893779763952e-05
238 0.004316483158618212 0.05 2.3490883904742077e-05
239 0.004273866768926382 0.05 2.3029324438539334e-05
240 0.0042345039546489716 0.05 2.2607076971326023e-05
241 0.004192621447145939 0.05 2.2162083041621372e-05
242 0.004151921719312668 0.05 2.1733896574005485e-05
243 0.004116847179830074 0.05 2.136823968612589e-05
244 0.0040764170698821545 0.05 2.0950603357050568e-05
245 0.004039400722831488 0.05 2.057184246950783e-05
246 0.004000400193035603 0.05 2.01765178644564e-05
247 0.003962420858442783 0.05 1.9795224943663925e-05
248 0.003928605932742357 0.05 1.945880831044633e-05
249 0.00389414606615901 0.05 1.91189374163514e-05
250 0.003856128780171275 0.05 1.8747454305412248e-05
251 0.0038217997644096613 0.05 1.8415148588246666e-05
252 0.0037879415322095156 0.05 1.8090302546625026e-05
253 0.003752051154151559 0.05 1.774912016117014e-05
254 0.0037188867572695017 0.05 1.7436736015952192e-05
255 0.0036817763466387987 0.05 1.7090475012082607e-05
