
  0%|                                                                                                                                                                                                                                                                                            | 0/10 [00:00<?, ?it/s]
0, 0.1364392638206482
1, 0.1364392638206482
2, 0.12979261577129364
3, 0.11694779247045517
4, 0.09893609583377838
5, 0.07756028324365616
6, 0.055496152490377426
7, 0.03877011686563492
8, 0.027035390958189964
9, 0.019472908228635788
10, 0.015018617734313011
11, 0.012625309638679028
12, 0.011442838236689568
13, 0.010874456726014614
14, 0.010546863079071045
15, 0.010251524858176708
16, 0.009884471073746681
17, 0.009414665400981903
18, 0.008851728402078152
19, 0.00822383537888527
20, 0.007564781233668327
21, 0.006907637231051922
22, 0.00628289207816124
23, 0.005717588122934103
24, 0.00522548146545887
25, 0.004811981227248907
26, 0.004473725333809853
27, 0.0042026350274682045
28, 0.003987222444266081
29, 0.0038128651212900877
30, 0.00366490101441741
31, 0.0035308829974383116
32, 0.00340051157400012
33, 0.0032666674815118313
34, 0.003125860821455717
35, 0.0029771465342491865
36, 0.0028215746860951185
37, 0.0026618717238307
38, 0.002501348964869976
39, 0.002343790140002966
40, 0.0021928977221250534
41, 0.002051449380815029
42, 0.0019215531647205353
43, 0.0018043521558865905
44, 0.0016999043291434646
45, 0.0016077023465186357
46, 0.0015265870606526732
47, 0.0014548053732141852
48, 0.001390677411109209
49, 0.0013324404135346413
50, 0.0012786849401891232
51, 0.0012283790856599808
52, 0.0011806369293481112
53, 0.0011352377478033304
54, 0.001091810641810298
55, 0.0010505904210731387
56, 0.0010116435587406158
57, 0.0009750585304573178
58, 0.0009409517515450716
59, 0.0009093039552681148
60, 0.000879982952028513
61, 0.0008526947349309921
62, 0.0008272190461866558
63, 0.0008034386555664241
64, 0.0007809849921613932
65, 0.0007597575313411653
66, 0.0007394884596578777
67, 0.0007201257394626737
68, 0.0007016221061348915
69, 0.0006839560228399932
70, 0.00066709506791085
71, 0.0006511623505502939
72, 0.0006360971019603312
73, 0.0006219347706064582
74, 0.0006086318753659725
75, 0.0005961662973277271
76, 0.0005845307023264468
77, 0.0005736178136430681
78, 0.0005633755354210734
79, 0.0005537300603464246
80, 0.0005446341820061207
81, 0.0005359757342375815
82, 0.0005277620512060821
83, 0.0005199281731620431
84, 0.0005124303279444575
85, 0.0005052906926721334
86, 0.0004984434926882386
87, 0.0004919088678434491
88, 0.0004856581799685955
89, 0.0004796862485818565
90, 0.0004739919095300138
91, 0.00046852146624587476
92, 0.0004632989293895662
93, 0.00045829714508727193
94, 0.0004534904728643596
95, 0.0004488936101552099
96, 0.0004444706137292087
97, 0.0004402431077323854
98, 0.0004361403116490692
99, 0.0004322220920585096
100, 0.0004284340830054134
101, 0.0004247992765158415
102, 0.00042130047222599387
103, 0.00041791595867834985
104, 0.0004146238206885755
105, 0.0004114751354791224
106, 0.000408413412515074
107, 0.0004054640303365886
108, 0.0004026140086352825
109, 0.00039984306204132736
110, 0.0003971652768086642
111, 0.0003945861244574189
112, 0.00039208022644743323
113, 0.0003896593116223812
114, 0.00038731269887648523
115, 0.0003850512148346752
116, 0.0003828605986200273
117, 0.00038073607720434666
118, 0.0003786775632761419
119, 0.00037668709410354495
120, 0.00037475000135600567
121, 0.00037287897430360317
122, 0.0003710677265189588
123, 0.00036931433714926243
124, 0.00036761118099093437
125, 0.0003659648937173188
126, 0.0003643639793153852
127, 0.00036282450309954584
128, 0.00036133392131887376
129, 0.0003598756738938391
130, 0.00035847490653395653
131, 0.00035710958763957024
132, 0.0003557968884706497
133, 0.0003545123036019504
134, 0.00035328668309375644
135, 0.00035208428744226694
136, 0.0003509332309477031
137, 0.0003498164005577564
138, 0.0003487296053208411
139, 0.0003476865531411022
140, 0.0003466779598966241
141, 0.0003457054262980819
142, 0.0003447611234150827
143, 0.00034384633181616664
144, 0.0003429704229347408
145, 0.00034211622551083565
146, 0.00034130559652112424
147, 0.0003405194729566574
148, 0.00033976027043536305
149, 0.000339033838827163
150, 0.0003383327857591212
151, 0.00033765839179977775
152, 0.00033700987114571035
153, 0.00033639156026765704
154, 0.0003357923123985529
155, 0.0003352261846885085
156, 0.000334685028064996
157, 0.0003341522242408246
158, 0.0003336522204335779
159, 0.00033317977795377374
160, 0.00033272927976213396
161, 0.00033229225664399564
162, 0.0003318750241305679
163, 0.00033148517832159996
164, 0.00033110962249338627
165, 0.00033075030660256743
166, 0.00033041322603821754
167, 0.00033010132028721273
168, 0.0003298082738183439
169, 0.0003295207570772618
170, 0.00032925931736826897
171, 0.00032900547375902534
172, 0.0003287760482635349
173, 0.00032855672179721296
174, 0.00032835916499607265
175, 0.0003281732206232846
176, 0.0003279908560216427
177, 0.00032783005735836923
178, 0.0003276822972111404
179, 0.00032755345455370843
180, 0.0003274263290222734
181, 0.0003273082838859409
182, 0.0003272104950156063
183, 0.0003271226887591183
184, 0.0003270333108957857
185, 0.0003269580192863941
186, 0.0003268994332756847
187, 0.0003268391592428088
188, 0.0003267905558459461
189, 0.00032674981048330665
190, 0.00032671610824763775
191, 0.0003266790590714663
192, 0.00032665691105648875
193, 0.00032663706224411726
194, 0.00032662885496392846
195, 0.0003266132844146341
196, 0.00032660760916769505
197, 0.0003266031853854656
198, 0.0003265966661274433
199, 0.00032659806311130524
0 2.45873761177063 0.05 7.744024753570557
1 2.303962230682373 0.05 6.799751281738281
2 2.1422319412231445 0.05 5.878619194030762
3 1.9422423839569092 0.05 4.832247734069824
4 1.6601120233535767 0.05 3.5303449630737305
5 1.2592968940734863 0.05 2.031414747238159
6 0.8230921626091003 0.05 0.8678392171859741
7 0.5880419611930847 0.05 0.44295430183410645
8 0.4834849238395691 0.05 0.2994388937950134
9 0.4001427888870239 0.05 0.20510315895080566
10 0.3427257537841797 0.05 0.15046510100364685
11 0.30009254813194275 0.05 0.1153593510389328
12 0.26755207777023315 0.05 0.0916978120803833
13 0.24190908670425415 0.05 0.07496295869350433
14 0.22105726599693298 0.05 0.06259678304195404
15 0.20383089780807495 0.05 0.05322092026472092
16 0.18942511081695557 0.05 0.04596395790576935
17 0.17718909680843353 0.05 0.04021761566400528
18 0.1666589081287384 0.05 0.035579461604356766
19 0.15744496881961823 0.05 0.03175411373376846
20 0.14929623901844025 0.05 0.028552230447530746
21 0.14199435710906982 0.05 0.02582763135433197
22 0.13538815081119537 0.05 0.02348029986023903
23 0.12940189242362976 0.05 0.021449821069836617
24 0.12391407787799835 0.05 0.0196690633893013
25 0.1188700720667839 0.05 0.018100369721651077
26 0.11423277109861374 0.05 0.01671566814184189
27 0.10993951559066772 0.05 0.015482818707823753
28 0.10595764219760895 0.05 0.014381591230630875
29 0.10224451869726181 0.05 0.013391290791332722
30 0.09877415001392365 0.05 0.012497667223215103
31 0.09553041309118271 0.05 0.011690299957990646
32 0.09247920662164688 0.05 0.01095545757561922
33 0.08959975093603134 0.05 0.010283855721354485
34 0.08688371628522873 0.05 0.009669836610555649
35 0.08431202918291092 0.05 0.009105870500206947
36 0.08186691999435425 0.05 0.008585374802350998
37 0.07954531162977219 0.05 0.008105346001684666
38 0.07734054327011108 0.05 0.007662258110940456
39 0.07523413747549057 0.05 0.007250571623444557
40 0.0732182115316391 0.05 0.006867215037345886
41 0.07129725068807602 0.05 0.006511603482067585
42 0.069451242685318 0.05 0.006178774405270815
43 0.06768302619457245 0.05 0.005868159234523773
44 0.06598623842000961 0.05 0.005577622447162867
45 0.06435582786798477 0.05 0.005305399652570486
46 0.0627945065498352 0.05 0.005051096901297569
47 0.06127934157848358 0.05 0.004810282029211521
48 0.05982619896531105 0.05 0.004584849812090397
49 0.058421652764081955 0.05 0.004372099414467812
50 0.057070791721343994 0.05 0.004172247834503651
51 0.0557657927274704 0.05 0.003983622416853905
52 0.05450458452105522 0.05 0.0038054706528782845
53 0.0532817505300045 0.05 0.0036366318818181753
54 0.05210614949464798 0.05 0.0034779259003698826
55 0.05096608027815819 0.05 0.0033273985609412193
56 0.049859821796417236 0.05 0.003184518776834011
57 0.04879019781947136 0.05 0.003049351740628481
58 0.04775627702474594 0.05 0.0029214825481176376
59 0.04675192013382912 0.05 0.0027998918667435646
60 0.04577269405126572 0.05 0.0026838318444788456
61 0.044828105717897415 0.05 0.002574204932898283
62 0.04391280561685562 0.05 0.002470158040523529
63 0.04301796108484268 0.05 0.002370511181652546
64 0.042152389883995056 0.05 0.002276076003909111
65 0.04130992293357849 0.05 0.0021860047709196806
66 0.040492475032806396 0.05 0.002100347075611353
67 0.039696961641311646 0.05 0.0020186309702694416
68 0.03892402723431587 0.05 0.0019407868385314941
69 0.03816922754049301 0.05 0.0018662468064576387
70 0.03743688389658928 0.05 0.001795319258235395
71 0.03672443702816963 0.05 0.0017276376020163298
72 0.036034680902957916 0.05 0.0016633502673357725
73 0.03535280004143715 0.05 0.0016009951941668987
74 0.03469870239496231 0.05 0.0015422998694702983
75 0.03405248001217842 0.05 0.0014853877946734428
76 0.03343341127038002 0.05 0.0014318705070763826
77 0.032820336520671844 0.05 0.0013798389118164778
78 0.03222287818789482 0.05 0.001330059370957315
79 0.03164985403418541 0.05 0.0012831746134907007
80 0.0310833640396595 0.05 0.0012376514496281743
81 0.030528953298926353 0.05 0.0011938950046896935
82 0.029995853081345558 0.05 0.001152563258074224
83 0.029469473287463188 0.05 0.001112466910853982
84 0.028956670314073563 0.05 0.0010740873403847218
85 0.02845732495188713 0.05 0.0010373624972999096
86 0.027970090508461 0.05 0.0010021438356488943
87 0.027492905035614967 0.05 0.0009682413656264544
88 0.027028849348425865 0.05 0.0009358309907838702
89 0.02657184936106205 0.05 0.0009044527541846037
90 0.026129649952054024 0.05 0.0008746000239625573
91 0.02569454349577427 0.05 0.000845715228933841
92 0.025270355865359306 0.05 0.0008180220611393452
93 0.024852823466062546 0.05 0.000791213707998395
94 0.02445230446755886 0.05 0.0007659174734726548
95 0.02405386045575142 0.05 0.0007411598926410079
96 0.023665474727749825 0.05 0.000717418733984232
97 0.023286757990717888 0.05 0.0006946409121155739
98 0.022915136069059372 0.05 0.0006726470310240984
99 0.022553110495209694 0.05 0.0006515613058581948
tuning, 0, 0.0003565615916159004
tuning, 1, 0.0003565615916159004
tuning, 2, 0.00035413168370723724
tuning, 3, 0.0003500710881780833
tuning, 4, 0.0003448912757448852
tuning, 5, 0.00033895354135893285
tuning, 6, 0.0003329909814056009
tuning, 7, 0.00032617695978842676
tuning, 8, 0.0003187064139638096
tuning, 9, 0.0003113239072263241
tuning, 10, 0.00030365606653504074
tuning, 11, 0.00029600108973681927
tuning, 12, 0.0002890043833758682
tuning, 13, 0.0002823770046234131
tuning, 14, 0.00027584476629272103
tuning, 15, 0.00027015339583158493
tuning, 16, 0.00026464517577551305
tuning, 17, 0.0002591210068203509
tuning, 18, 0.00025369436480104923
tuning, 19, 0.00024851999478414655
tuning, 20, 0.00024354079505428672
tuning, 21, 0.0002390103181824088
tuning, 22, 0.00023451994638890028
tuning, 23, 0.0002301789791090414
tuning, 24, 0.00022580320364795625
tuning, 25, 0.0002215975255239755
tuning, 26, 0.0002175467525376007
tuning, 27, 0.0002137829433195293
tuning, 28, 0.00020990808843635023
tuning, 29, 0.00020639027934521437
tuning, 30, 0.00020296600996516645
tuning, 31, 0.00019981933292001486
tuning, 32, 0.00019678374519571662
tuning, 33, 0.00019378599245101213
tuning, 34, 0.00019088384578935802
tuning, 35, 0.00018796231597661972
tuning, 36, 0.00018513028044253588
tuning, 37, 0.00018232394359074533
tuning, 38, 0.0001795171992853284
tuning, 39, 0.0001767988142091781
tuning, 40, 0.00017422539531253278
tuning, 41, 0.00017178458801936358
tuning, 42, 0.0001691962534096092
tuning, 43, 0.00016673782374709845
tuning, 44, 0.0001642148126848042
tuning, 45, 0.00016189509187825024
tuning, 46, 0.0001597129594301805
tuning, 47, 0.00015743951371405274
tuning, 48, 0.0001552558969706297
tuning, 49, 0.00015327802975662053
tuning, 50, 0.00015109661035239697
tuning, 51, 0.00014916033251211047
tuning, 52, 0.00014705037756357342
tuning, 53, 0.00014523309073410928
tuning, 54, 0.00014339530025608838
tuning, 55, 0.00014208983338903636
tuning, 56, 0.0001405049697495997
tuning, 57, 0.00014027711586095393
tuning, 58, 0.0001415073493262753
tuning, 59, 0.00014170909707900137
tuning, 60, 0.00013897124154027551
tuning, 61, 0.00013301128637976944
tuning, 62, 0.00012971764954272658
tuning, 63, 0.00013083964586257935
tuning, 64, 0.00013147159188520163
tuning, 65, 0.00012718004290945828
tuning, 66, 0.00012372572382446378
tuning, 67, 0.00012383847206365317
tuning, 68, 0.00012449792120605707
tuning, 69, 0.00012149264512117952
tuning, 70, 0.00011831419396912679
tuning, 71, 0.00011795179307227954
tuning, 72, 0.00011813922901637852
tuning, 73, 0.00011531412019394338
tuning, 74, 0.00011315065057715401
tuning, 75, 0.0001126701754401438
tuning, 76, 0.00011231056851102039
tuning, 77, 0.0001101480083889328
tuning, 78, 0.00010831441613845527
tuning, 79, 0.00010746088082669303
tuning, 80, 0.00010704410669859499
tuning, 81, 0.00010533900058362633
tuning, 82, 0.00010362167813582346
tuning, 83, 0.0001026275276672095
tuning, 84, 0.00010201069380855188
tuning, 85, 0.00010069232666864991
tuning, 86, 9.934373520081863e-05
tuning, 87, 9.82586934696883e-05
tuning, 88, 9.735547791933641e-05
tuning, 89, 9.621713252272457e-05
tuning, 90, 9.520587627775967e-05
tuning, 91, 9.413716907147318e-05
tuning, 92, 9.279938967665657e-05
tuning, 93, 9.19694866752252e-05
tuning, 94, 9.133237472269684e-05
tuning, 95, 9.04774569789879e-05
tuning, 96, 8.904485002858564e-05
tuning, 97, 8.78223218023777e-05
tuning, 98, 8.691046241438016e-05
tuning, 99, 8.624081965535879e-05
tuning, 100, 8.528023317921907e-05
tuning, 101, 8.432945469394326e-05
tuning, 102, 8.318573236465454e-05
tuning, 103, 8.21736321086064e-05
tuning, 104, 8.112930663628504e-05
tuning, 105, 8.020469249458984e-05
tuning, 106, 7.942890078993514e-05
tuning, 107, 7.885888771852478e-05
tuning, 108, 7.819169695721939e-05
tuning, 109, 7.693037332501262e-05
tuning, 110, 7.560352969449013e-05
tuning, 111, 7.428634853567928e-05
tuning, 112, 7.380788156297058e-05
tuning, 113, 7.303352322196588e-05
tuning, 114, 7.233730866573751e-05
tuning, 115, 7.084311073413119e-05
tuning, 116, 7.00499294907786e-05
tuning, 117, 6.941811443539336e-05
tuning, 118, 6.796667003072798e-05
tuning, 119, 6.71961170155555e-05
tuning, 120, 6.646462861681357e-05
tuning, 121, 6.538491288665682e-05
tuning, 122, 6.43318344373256e-05
tuning, 123, 6.352744821924716e-05
tuning, 124, 6.268910510698333e-05
tuning, 125, 6.196200411068276e-05
tuning, 126, 6.116651638876647e-05
tuning, 127, 6.0186925111338496e-05
tuning, 128, 5.975272142677568e-05
tuning, 129, 5.9331599914003164e-05
tuning, 130, 5.811715527670458e-05
tuning, 131, 5.732246063416824e-05
tuning, 132, 5.663085539708845e-05
tuning, 133, 5.581068035098724e-05
tuning, 134, 5.537216929951683e-05
tuning, 135, 5.4760817874921486e-05
tuning, 136, 5.4122683650348336e-05
tuning, 137, 5.327516555553302e-05
tuning, 138, 5.2438896091189235e-05
tuning, 139, 5.256190343061462e-05
tuning, 140, 5.181215237826109e-05
tuning, 141, 5.245800639386289e-05
tuning, 142, 5.243887426331639e-05
tuning, 143, 5.031000910094008e-05
tuning, 144, 4.905786772724241e-05
tuning, 145, 4.822754635824822e-05
tuning, 146, 4.691308276960626e-05
tuning, 147, 4.6612876758445054e-05
tuning, 148, 4.622116102837026e-05
tuning, 149, 4.5711778511758894e-05
tuning, 150, 4.6912078687455505e-05
tuning, 151, 4.679458652390167e-05
tuning, 152, 4.407611777423881e-05
tuning, 153, 4.353004624135792e-05
tuning, 154, 4.332979369792156e-05
tuning, 155, 4.289728167350404e-05
tuning, 156, 4.2582134483382106e-05
tuning, 157, 4.201308183837682e-05
tuning, 158, 4.1802788473432884e-05
tuning, 159, 4.163149787927978e-05
tuning, 160, 4.0052815165836364e-05
tuning, 161, 4.0237107896246016e-05
tuning, 162, 3.959428067901172e-05
tuning, 163, 3.8906011468498036e-05
tuning, 164, 3.908101643901318e-05
tuning, 165, 3.8059079088270664e-05
tuning, 166, 3.820222627837211e-05
tuning, 167, 3.744753485079855e-05
tuning, 168, 3.666272823465988e-05
tuning, 169, 3.7256573705235496e-05
tuning, 170, 3.655345062725246e-05
tuning, 171, 3.56201890099328e-05
tuning, 172, 3.564516009646468e-05
tuning, 173, 3.480497616692446e-05
tuning, 174, 3.5299315641168505e-05
tuning, 175, 3.4301509003853425e-05
tuning, 176, 3.4195356420241296e-05
tuning, 177, 3.461914457147941e-05
tuning, 178, 3.3153046388179064e-05
tuning, 179, 3.344529977766797e-05
tuning, 180, 3.270027082180604e-05
tuning, 181, 3.262662357883528e-05
tuning, 182, 3.278408257756382e-05
tuning, 183, 3.174477751599625e-05
tuning, 184, 3.30657021549996e-05
tuning, 185, 3.119370376225561e-05
tuning, 186, 3.2645566534483805e-05
tuning, 187, 3.267618012614548e-05
tuning, 188, 3.0703144147992134e-05
tuning, 189, 3.276357165304944e-05
tuning, 190, 2.964935265481472e-05
tuning, 191, 3.299352101748809e-05
tuning, 192, 2.988388587255031e-05
tuning, 193, 3.1985429814085364e-05
tuning, 194, 3.090891914325766e-05
tuning, 195, 3.0130458981147967e-05
tuning, 196, 3.284822741989046e-05
tuning, 197, 2.8554777600220405e-05
tuning, 198, 3.3804688428062946e-05
tuning, 199, 2.7678599508362822e-05
tuning, 200, 3.355312583153136e-05
tuning, 201, 2.731620588747319e-05
tuning, 202, 3.385224408702925e-05
tuning, 203, 2.719544863793999e-05
tuning, 204, 3.336842200951651e-05
tuning, 205, 2.7270374630461447e-05
tuning, 206, 3.395572639419697e-05
tuning, 207, 2.7183585189050063e-05
tuning, 208, 3.507927613100037e-05
tuning, 209, 2.675215364433825e-05
tuning, 210, 3.4088719985447824e-05
tuning, 211, 2.6532323317951523e-05
tuning, 212, 3.3836313377832994e-05
tuning, 213, 2.536127794883214e-05
tuning, 214, 3.476048004813492e-05
tuning, 215, 2.4613807909190655e-05
tuning, 216, 3.504921551211737e-05
tuning, 217, 2.4559656594647095e-05
tuning, 218, 3.318593371659517e-05
tuning, 219, 2.541979483794421e-05
tuning, 220, 3.087666118517518e-05
tuning, 221, 2.7567037250264548e-05
tuning, 222, 2.7406509616412222e-05
tuning, 223, 3.0670154956169426e-05
tuning, 224, 2.4139726519933902e-05
tuning, 225, 3.199206912540831e-05
tuning, 226, 2.245408541057259e-05
tuning, 227, 3.2005518733058125e-05
tuning, 228, 2.4028697225730866e-05
tuning, 229, 2.8057471354259178e-05
tuning, 230, 2.9681861633434892e-05
tuning, 231, 2.2652893676422536e-05
tuning, 232, 3.1405084882862866e-05
tuning, 233, 2.1915337129030377e-05
tuning, 234, 2.846526876965072e-05
tuning, 235, 2.461305666656699e-05
tuning, 236, 2.368484274484217e-05
tuning, 237, 2.9277191060828045e-05
tuning, 238, 2.0706633222289383e-05
tuning, 239, 2.85533387796022e-05
tuning, 240, 2.4074301109067164e-05
tuning, 241, 2.232811675639823e-05
tuning, 242, 2.752557338681072e-05
tuning, 243, 2.0097413653274998e-05
tuning, 244, 2.56932144111488e-05
tuning, 245, 2.3861241061240435e-05
tuning, 246, 2.0433082681847736e-05
tuning, 247, 2.622976535349153e-05
tuning, 248, 2.04378357011592e-05
tuning, 249, 2.1736570488428697e-05
tuning, 250, 2.3789942133589648e-05
tuning, 251, 1.8991071556229144e-05
tuning, 252, 2.2595449991058558e-05
tuning, 253, 2.1208590624155477e-05
tuning, 254, 1.912554398586508e-05
tuning, 255, 2.347361260035541e-05
tuning, 256, 1.9863857232849114e-05
tuning, 257, 1.9345992768649012e-05
tuning, 258, 2.2359838112606667e-05
tuning, 259, 1.8854965674108826e-05
tuning, 260, 1.9553950551198795e-05
tuning, 261, 2.0963299903087318e-05
tuning, 262, 1.8142249246011488e-05
tuning, 263, 1.9479306502034888e-05
tuning, 264, 2.0297307855798863e-05
tuning, 265, 1.7786151147447526e-05
tuning, 266, 1.926163531607017e-05
tuning, 267, 1.991087083297316e-05
tuning, 268, 1.7637779819779098e-05
tuning, 269, 1.864551450125873e-05
tuning, 270, 1.9229226381867193e-05
tuning, 271, 1.731284282868728e-05
