
  0%|                                                                                                                                                                                                                                                                                             | 0/1 [00:00<?, ?it/s]
0, 0.1364392638206482
1, 0.1364392638206482
2, 0.12979243695735931
3, 0.11694799363613129
4, 0.09893615543842316
5, 0.0775601714849472
6, 0.0554962120950222
7, 0.03877319023013115
8, 0.027045434340834618
9, 0.019489780068397522
10, 0.015038205310702324
11, 0.012640533968806267
12, 0.011447697877883911
13, 0.010865211486816406
14, 0.010523630306124687
15, 0.010215485468506813
16, 0.00984133966267109
17, 0.009367109276354313
18, 0.00880507193505764
19, 0.008181018754839897
20, 0.007529824040830135
21, 0.006880328990519047
22, 0.0062618437223136425
23, 0.005696942564100027
24, 0.005200904794037342
25, 0.004777911119163036
26, 0.004425353836268187
27, 0.004136763513088226
28, 0.0039020979311317205
29, 0.0037090438418090343
30, 0.003545287996530533
31, 0.0034008012153208256
32, 0.003265921026468277
33, 0.0031345821917057037
34, 0.0030030328780412674
35, 0.002868878422304988
36, 0.002732105553150177
37, 0.002593459328636527
38, 0.0024547926150262356
39, 0.002318170852959156
40, 0.0021859086118638515
41, 0.0020598378032445908
42, 0.0019416979048401117
43, 0.001832287758588791
44, 0.0017321155173704028
45, 0.0016413433477282524
46, 0.001559521071612835
47, 0.0014860488008707762
48, 0.0014202747261151671
49, 0.0013612400507554412
50, 0.0013079303316771984
51, 0.0012596737360581756
52, 0.0012156295124441385
53, 0.0011752494610846043
54, 0.0011379154166206717
55, 0.0011033869814127684
56, 0.0010712904622778296
57, 0.0010414220159873366
58, 0.0010135853663086891
59, 0.0009877001866698265
60, 0.0009635904571041465
61, 0.0009412779472768307
62, 0.0009204762754961848
63, 0.0009013192029669881
64, 0.0008835997432470322
65, 0.0008672815165482461
66, 0.0008522243006154895
67, 0.000838331994600594
68, 0.0008256015134975314
69, 0.0008138587581925094
70, 0.0008030979661270976
71, 0.0007932576118037105
72, 0.0007841398473829031
73, 0.0007758300635032356
74, 0.0007682381547056139
75, 0.0007613076595589519
76, 0.0007549099391326308
77, 0.0007491192664019763
78, 0.0007438574684783816
79, 0.0007390584796667099
80, 0.0007347305072471499
81, 0.0007308217464014888
82, 0.000727342558093369
83, 0.0007242264109663665
84, 0.0007214531069621444
85, 0.0007189379539340734
86, 0.0007168244919739664
87, 0.0007149539887905121
88, 0.0007133237086236477
89, 0.0007119813235476613
90, 0.0007108240388333797
91, 0.000709875370375812
92, 0.0007090994622558355
93, 0.0007085044635459781
94, 0.0007079997449181974
95, 0.0007076614419929683
96, 0.0007074151071719825
97, 0.0007072595763020217
98, 0.0007071836735121906
99, 0.0007071536965668201
0 2.419106960296631 0.05 7.6405348777771
1 2.2590560913085938 0.05 6.662967205047607
2 2.0915708541870117 0.05 5.711613655090332
3 1.8938089609146118 0.05 4.682588577270508
4 1.6141129732131958 0.05 3.4015870094299316
5 1.2362416982650757 0.05 1.9953562021255493
6 0.8045409321784973 0.05 0.8451036214828491
7 0.5749233365058899 0.05 0.4315524697303772
8 0.47207698225975037 0.05 0.2909640669822693
9 0.39231693744659424 0.05 0.20094989240169525
10 0.33782824873924255 0.05 0.14900663495063782
11 0.2966773509979248 0.05 0.11491653323173523
12 0.2651844918727875 0.05 0.09181422740221024
13 0.24007371068000793 0.05 0.07524937391281128
14 0.21957282721996307 0.05 0.0629463940858841
15 0.20264814794063568 0.05 0.05361655354499817
16 0.1885145902633667 0.05 0.04639846831560135
17 0.176528200507164 0.05 0.040685705840587616
18 0.16618973016738892 0.05 0.03605969250202179
19 0.15711866319179535 0.05 0.03223066031932831
20 0.14906463027000427 0.05 0.029011018574237823
21 0.14183451235294342 0.05 0.02626500464975834
22 0.1352822184562683 0.05 0.02389434352517128
23 0.12931500375270844 0.05 0.0218329057097435
24 0.12385255843400955 0.05 0.02002735622227192
25 0.11884365975856781 0.05 0.018440203741192818
26 0.11421742290258408 0.05 0.017032498493790627
27 0.10994182527065277 0.05 0.015781182795763016
28 0.10597803443670273 0.05 0.014663761481642723
29 0.10228573530912399 0.05 0.013659782707691193
30 0.09884221851825714 0.05 0.012755533680319786
31 0.09561944007873535 0.05 0.011937297880649567
32 0.09259266406297684 0.05 0.011193523183465004
33 0.08974101394414902 0.05 0.010514669120311737
34 0.0870497077703476 0.05 0.009893462061882019
35 0.08450020849704742 0.05 0.009322433732450008
36 0.08207640051841736 0.05 0.008795293048024178
37 0.0797734335064888 0.05 0.008308645337820053
38 0.077583909034729 0.05 0.007858813740313053
39 0.07548899948596954 0.05 0.007440138608217239
40 0.07348527014255524 0.05 0.0070504080504179
41 0.07156573235988617 0.05 0.00668688490986824
42 0.06972895562648773 0.05 0.006348046008497477
43 0.06796437501907349 0.05 0.006030820310115814
44 0.06626482307910919 0.05 0.0057329703122377396
45 0.06462869793176651 0.05 0.005453364457935095
46 0.06305383145809174 0.05 0.005190826952457428
47 0.06153879314661026 0.05 0.0049443780444562435
48 0.06007499247789383 0.05 0.004711954854428768
49 0.05866146460175514 0.05 0.0044928244315087795
50 0.057291220873594284 0.05 0.004285384900867939
51 0.055970367044210434 0.05 0.004090063273906708
52 0.05469663441181183 0.05 0.003906023921445012
53 0.053455352783203125 0.05 0.00373074971139431
54 0.05225684493780136 0.05 0.0035653323866426945
55 0.051099397242069244 0.05 0.0034091430716216564
56 0.04997483640909195 0.05 0.0032607419416308403
57 0.048885785043239594 0.05 0.0031201739329844713
58 0.047829002141952515 0.05 0.00298673240467906
59 0.04680122807621956 0.05 0.0028597512282431126
60 0.045806679874658585 0.05 0.0027394997887313366
61 0.04484062269330025 0.05 0.002625166904181242
62 0.04390225186944008 0.05 0.0025164438411593437
63 0.04298859089612961 0.05 0.0024127934593707323
64 0.042107321321964264 0.05 0.0023148823529481888
65 0.04124612733721733 0.05 0.0022211610339581966
66 0.040404342114925385 0.05 0.002131423680111766
67 0.039594415575265884 0.05 0.002046828856691718
68 0.0388009212911129 0.05 0.001965611707419157
69 0.038031913340091705 0.05 0.0018884697929024696
70 0.03728784620761871 0.05 0.00181529950350523
71 0.03655600920319557 0.05 0.0017447418067604303
72 0.03584614768624306 0.05 0.0016776393167674541
73 0.03515986353158951 0.05 0.0016140165971592069
74 0.034485410898923874 0.05 0.0015526890056207776
75 0.03383384644985199 0.05 0.0014945705188438296
76 0.0331885851919651 0.05 0.0014381068758666515
77 0.03256821632385254 0.05 0.0013848466333001852
78 0.03196583315730095 0.05 0.0013340918812900782
79 0.03137560561299324 0.05 0.0012852803338319063
80 0.030799254775047302 0.05 0.0012384946458041668
81 0.030240321531891823 0.05 0.0011939508840441704
82 0.029691990464925766 0.05 0.0011510448530316353
83 0.029163852334022522 0.05 0.0011104613076895475
84 0.02864246442914009 0.05 0.0010711109498515725
85 0.028133662417531013 0.05 0.001033394830301404
86 0.02764010801911354 0.05 0.0009974546264857054
87 0.027158718556165695 0.05 0.0009630132699385285
88 0.026685664430260658 0.05 0.0009297574870288372
89 0.026223111897706985 0.05 0.000897805264685303
90 0.025769654661417007 0.05 0.0008670234819874167
91 0.02533143013715744 0.05 0.0008377860067412257
92 0.024905789643526077 0.05 0.000809868099167943
93 0.024487117305397987 0.05 0.0007828687666915357
94 0.02407870441675186 0.05 0.0007569721783511341
95 0.023677151650190353 0.05 0.0007319350261241198
96 0.02328404039144516 0.05 0.0007078322814777493
97 0.02290470153093338 0.05 0.000684956437908113
98 0.02253193035721779 0.05 0.0006628426490351558

  0%|                                                                                                                                                                                                                                                                                             | 0/1 [00:40<?, ?it/s]
