
  0%|                                                                                                                                                                                                                                                                                            | 0/10 [00:00<?, ?it/s]
0, 0.1364392638206482
1, 0.1364392638206482
2, 0.12979237735271454
3, 0.11694815009832382
4, 0.09893620014190674
5, 0.07756023108959198
6, 0.0554962158203125
7, 0.038769420236349106
8, 0.02703305147588253
9, 0.019468706101179123
10, 0.015014074742794037
11, 0.01262170821428299
12, 0.01144178956747055
13, 0.010876914486289024
14, 0.010552622377872467
15, 0.01026023831218481
16, 0.009895116090774536
17, 0.009426206350326538
18, 0.008862892165780067
19, 0.0082337511703372
20, 0.007573065347969532
21, 0.006914502941071987
22, 0.006288953125476837
23, 0.005723693873733282
24, 0.005233249627053738
25, 0.004821679554879665
26, 0.004487522877752781
27, 0.004221011884510517
28, 0.00401060376316309
29, 0.0038409538101404905
30, 0.003696679137647152
31, 0.003565175225958228
32, 0.003435310674831271
33, 0.003300437470898032
34, 0.003156833117827773
35, 0.0030039618723094463
36, 0.0028433180414140224
37, 0.0026781128253787756
38, 0.002512231469154358
39, 0.002349983900785446
40, 0.002195216016843915
41, 0.0020511546172201633
42, 0.0019198715453967452
43, 0.0018023410812020302
44, 0.001698467880487442
45, 0.0016074050217866898
46, 0.0015276256017386913
47, 0.00145710667129606
48, 0.0013937698677182198
49, 0.0013358009746298194
50, 0.001281576231122017
51, 0.001230157446116209
52, 0.0011810017749667168
53, 0.001133862417191267
54, 0.001088800374418497
55, 0.0010459666373208165
56, 0.0010056671453639865
57, 0.0009681558003649116
58, 0.0009333170019090176
59, 0.000901056919246912
60, 0.0008710948168300092
61, 0.0008431502501480281
62, 0.0008168680942617357
63, 0.0007919715717434883
64, 0.0007682169089093804
65, 0.0007454116712324321
66, 0.0007234783843159676
67, 0.0007023944053798914
68, 0.0006822861032560468
69, 0.0006631677388213575
70, 0.0006452050874941051
71, 0.0006283520488068461
72, 0.0006126660737209022
73, 0.0005980663700029254
74, 0.0005844977567903697
75, 0.0005718599422834814
76, 0.0005600205040536821
77, 0.0005488720489665866
78, 0.0005383071256801486
79, 0.0005282447673380375
80, 0.0005186314228922129
81, 0.0005094303051009774
82, 0.0005006009014323354
83, 0.000492163875605911
84, 0.00048410589806735516
85, 0.0004763954202644527
86, 0.00046904513146728277
87, 0.00046200628275983036
88, 0.00045529077760875225
89, 0.00044885181705467403
90, 0.0004426815430633724
91, 0.0004367516085039824
92, 0.00043103910866193473
93, 0.0004255569074302912
94, 0.0004202515701763332
95, 0.0004151459434069693
96, 0.0004101893282495439
97, 0.000405383383622393
98, 0.0004007354727946222
99, 0.0003962091577704996
100, 0.00039182568434625864
101, 0.00038757160655222833
102, 0.00038342070183716714
103, 0.00037941406480968
104, 0.00037551485002040863
105, 0.00037173787131905556
106, 0.0003680811496451497
107, 0.0003645338583737612
108, 0.00036107408232055604
109, 0.00035770313115790486
110, 0.00035441259387880564
111, 0.000351200345903635
112, 0.00034805358154699206
113, 0.00034497398883104324
114, 0.0003419782442506403
115, 0.0003390482161194086
116, 0.00033617339795455337
117, 0.0003333801287226379
118, 0.00033063613227568567
119, 0.00032796323648653924
120, 0.0003253469767514616
121, 0.0003227840643376112
122, 0.0003202728694304824
123, 0.00031782357837073505
124, 0.0003154045552946627
125, 0.00031303256400860846
126, 0.0003107192169409245
127, 0.0003084376803599298
128, 0.0003062039613723755
129, 0.0003040044684894383
130, 0.0003018493007402867
131, 0.00029974375502206385
132, 0.00029767543310299516
133, 0.00029564969008788466
134, 0.00029366568196564913
135, 0.000291701580863446
136, 0.0002897842787206173
137, 0.00028790230862796307
138, 0.00028604367980733514
139, 0.00028422579634934664
140, 0.00028242848929949105
141, 0.00028067801031284034
142, 0.00027895072707906365
143, 0.00027725810650736094
144, 0.00027559525915421546
145, 0.0002739514166023582
146, 0.0002723356883507222
147, 0.000270756398094818
148, 0.0002691972185857594
149, 0.00026766658993437886
150, 0.00026615901151672006
151, 0.0002646780340000987
152, 0.00026322260964661837
153, 0.00026178674306720495
154, 0.0002603792236186564
155, 0.000258996820775792
156, 0.00025763927260413766
157, 0.0002563045418355614
158, 0.0002549788332544267
159, 0.0002536824904382229
160, 0.00025240390095859766
161, 0.00025114620802924037
162, 0.0002499092952348292
163, 0.00024868184118531644
164, 0.0002474724315106869
165, 0.0002462889242451638
166, 0.0002451141190249473
167, 0.0002439480012981221
168, 0.00024280924117192626
169, 0.00024167716037482023
170, 0.00024056379334069788
171, 0.00023946058354340494
172, 0.00023837725166231394
173, 0.00023730813700240105
174, 0.0002362518571317196
175, 0.00023520312970504165
176, 0.00023417330521624535
177, 0.00023314994177781045
178, 0.0002321483043488115
179, 0.00023114733630791306
180, 0.00023016093473415822
181, 0.00022919621551409364
182, 0.00022822243045084178
183, 0.00022726219322066754
184, 0.00022633082699030638
185, 0.00022538639314007014
186, 0.00022446000366471708
187, 0.00022353886743076146
188, 0.0002226139622507617
189, 0.00022172401077114046
190, 0.00022083416115492582
191, 0.00021996790019329637
192, 0.0002191136300098151
193, 0.00021826208103448153
194, 0.00021743173419963568
195, 0.0002166157792089507
196, 0.00021580682368949056
197, 0.00021500998991541564
198, 0.00021421459678094834
199, 0.0002134311944246292
200, 0.0002126691397279501
201, 0.00021191011182963848
202, 0.00021116001880727708
203, 0.00021042201842647046
204, 0.00020970212062820792
205, 0.0002089817717205733
206, 0.00020828818378504366
207, 0.0002076033124467358
208, 0.00020692887483164668
209, 0.00020626335754059255
210, 0.00020560502889566123
211, 0.00020495065837167203
212, 0.00020431829034350812
213, 0.0002036824298556894
214, 0.0002030685282079503
215, 0.00020245672203600407
216, 0.00020184804452583194
217, 0.0002012540790019557
218, 0.00020066967408638448
219, 0.00020009055151604116
220, 0.00019952395814470947
221, 0.00019896787125617266
222, 0.0001984200644074008
223, 0.00019787729252129793
224, 0.00019733919179998338
225, 0.00019680801779031754
226, 0.00019629427697509527
227, 0.00019577992497943342
228, 0.00019527811673469841
229, 0.00019478099420666695
230, 0.00019428149971645325
231, 0.00019380540470592678
232, 0.0001933289458975196
233, 0.00019285979215055704
234, 0.0001923995732795447
235, 0.00019193888874724507
236, 0.00019148396677337587
237, 0.00019104720558971167
238, 0.0001906157413031906
239, 0.0001901803771033883
240, 0.0001897565962281078
241, 0.00018934431136585772
242, 0.0001889355480670929
243, 0.00018852399080060422
244, 0.0001881171192508191
245, 0.00018773236661218107
246, 0.0001873468718258664
247, 0.00018696856568567455
248, 0.00018659279157873243
249, 0.00018621573690325022
250, 0.00018585336511023343
251, 0.0001854839501902461
252, 0.00018513522809371352
253, 0.0001847846433520317
254, 0.00018443666340317577
255, 0.00018410592747386545
256, 0.00018377206288278103
257, 0.00018344575073570013
258, 0.00018312272732146084
259, 0.00018280919175595045
260, 0.0001824873615987599
261, 0.00018218089826405048
262, 0.00018188163812737912
263, 0.00018158764578402042
264, 0.0001812854316085577
265, 0.00018100591842085123
266, 0.0001807205844670534
267, 0.00018043993622995913
268, 0.00018016359535977244
269, 0.00017989310435950756
270, 0.00017962143465410918
271, 0.00017936501535587013
272, 0.00017910139285959303
273, 0.0001788492372725159
274, 0.00017859831859823316
275, 0.00017835432663559914
276, 0.00017811526777222753
277, 0.0001778740406734869
278, 0.00017763057257980108
279, 0.00017740085604600608
280, 0.00017717659648042172
281, 0.00017695238057058305
282, 0.00017672816466074437
283, 0.00017651850066613406
284, 0.00017630365618970245
285, 0.00017609767382964492
286, 0.00017589311755727977
287, 0.00017568815383128822
288, 0.00017548863252159208
289, 0.00017529877368360758
290, 0.0001751067757140845
291, 0.00017491582548245788
292, 0.00017473443585913628
293, 0.000174561922904104
294, 0.0001743810425978154
295, 0.00017420214135199785
296, 0.0001740316511131823
297, 0.0001738716964609921
298, 0.00017370088608004153
299, 0.00017354653391521424
300, 0.0001733848766889423
301, 0.000173225169419311
302, 0.00017307557573076338
303, 0.00017292573465965688
304, 0.00017278094310313463
305, 0.00017262998153455555
306, 0.00017249355732928962
307, 0.00017235538689419627
308, 0.00017221794405486435
309, 0.00017208732606377453
310, 0.0001719649153528735
311, 0.0001718321000225842
312, 0.00017171613581012934
313, 0.000171590581885539
314, 0.0001714691024972126
315, 0.00017135808593593538
316, 0.0001712444209260866
317, 0.00017113235662691295
318, 0.0001710258366074413
319, 0.00017091631889343262
320, 0.00017081259284168482
321, 0.0001707105984678492
322, 0.0001706186158116907
323, 0.00017051764007192105
324, 0.00017042839317582548
325, 0.0001703358138911426
326, 0.0001702463487163186
327, 0.00017016023048199713
328, 0.00017007642600219697
329, 0.00016999355284497142
330, 0.00016990964650176466
331, 0.00016983691602945328
332, 0.0001697628467809409
333, 0.00016968208365142345
334, 0.00016961366054601967
335, 0.00016953793237917125
336, 0.00016947717813309282
337, 0.00016941549256443977
338, 0.00016934910672716796
339, 0.00016928449622355402
340, 0.0001692271907813847
341, 0.00016916792083065957
342, 0.0001691076613496989
343, 0.00016905157826840878
344, 0.00016899568436201662
345, 0.00016894956934265792
346, 0.00016890517144929618
347, 0.00016885495278984308
348, 0.0001688061747699976
349, 0.00016876080189831555
350, 0.00016872367996256799
351, 0.00016868006787262857
352, 0.0001686436589807272
353, 0.00016860771575011313
354, 0.0001685628085397184
355, 0.0001685336756054312
356, 0.00016850314568728209
357, 0.00016846880316734314
358, 0.00016843283083289862
359, 0.0001684086601017043
360, 0.00016837559815030545
361, 0.00016835425049066544
362, 0.00016832994879223406
363, 0.00016830295498948544
364, 0.00016827898798510432
365, 0.0001682598376646638
366, 0.00016823620535433292
367, 0.00016822053294163197
368, 0.00016819717711769044
369, 0.0001681842841207981
370, 0.00016816877177916467
371, 0.00016814979608170688
372, 0.00016813846013974398
373, 0.0001681252324488014
374, 0.00016811180103104562
375, 0.0001681021967669949
376, 0.0001680880959611386
377, 0.0001680821878835559
378, 0.00016807654174044728
379, 0.00016806620988063514
380, 0.00016805817722342908
381, 0.00016804841288831085
382, 0.00016804544429760426
383, 0.00016803991456981748
384, 0.00016803077596705407
385, 0.00016803019389044493
386, 0.00016802799655124545
387, 0.000168027458130382
388, 0.00016802128811832517
389, 0.00016801629681140184
390, 0.00016801946912892163
391, 0.00016801684978418052
392, 0.00016801431775093079
393, 0.00016801277524791658
394, 0.00016801233869045973
395, 0.00016801133460830897
396, 0.00016801277524791658
397, 0.00016800923913251609
398, 0.00016800855519250035
399, 0.00016801137826405466
0 2.5696301460266113 0.05 7.866480827331543
1 2.410778284072876 0.05 6.923947334289551
2 2.2437026500701904 0.05 5.997494697570801
3 2.0393590927124023 0.05 4.954805374145508
4 1.7656608819961548 0.05 3.714101791381836
5 1.3639823198318481 0.05 2.2164440155029297
6 0.9260638952255249 0.05 1.0216946601867676
7 0.6311439275741577 0.05 0.47456538677215576
8 0.5145963430404663 0.05 0.3154805302619934
9 0.42811286449432373 0.05 0.2183513343334198
10 0.36378058791160583 0.05 0.15765881538391113
11 0.31631308794021606 0.05 0.11919928342103958
12 0.2787942588329315 0.05 0.09259913116693497
13 0.24866236746311188 0.05 0.07366469502449036
14 0.22458793222904205 0.05 0.06009136885404587
15 0.2054041028022766 0.05 0.05026405677199364
16 0.1899471879005432 0.05 0.042983826249837875
17 0.17721882462501526 0.05 0.03741614148020744
18 0.1664847880601883 0.05 0.03302086144685745
19 0.1572425365447998 0.05 0.029456373304128647
20 0.1491793841123581 0.05 0.026512879878282547
21 0.14200687408447266 0.05 0.02402469888329506
22 0.13557161390781403 0.05 0.0218966044485569
23 0.12975440919399261 0.05 0.020057808607816696
24 0.12443652004003525 0.05 0.0184473916888237
25 0.11956734955310822 0.05 0.01703195460140705
26 0.1150740534067154 0.05 0.015775898471474648
27 0.11090841144323349 0.05 0.014654407277703285
28 0.10704747587442398 0.05 0.01365186832845211
29 0.10344653576612473 0.05 0.012748854234814644
30 0.1000756099820137 0.05 0.011931519955396652
31 0.0969160944223404 0.05 0.011190025135874748
32 0.09394316375255585 0.05 0.010514039546251297
33 0.09113625437021255 0.05 0.009895131923258305
34 0.0884827971458435 0.05 0.009327322244644165
35 0.08597327023744583 0.05 0.008805746212601662
36 0.08358698338270187 0.05 0.008323702029883862
37 0.08130324631929398 0.05 0.007875081151723862
38 0.07914119958877563 0.05 0.007461816072463989
39 0.0770716518163681 0.05 0.00707666389644146
40 0.07508040219545364 0.05 0.006715716794133186
41 0.07319285720586777 0.05 0.006382291205227375
42 0.0713547095656395 0.05 0.006065751425921917
43 0.06960385292768478 0.05 0.005771727301180363
44 0.06792819499969482 0.05 0.005497172474861145
45 0.06630267202854156 0.05 0.005237226374447346
46 0.06473569571971893 0.05 0.004992601461708546
47 0.06322957575321198 0.05 0.004762991331517696
48 0.061770014464855194 0.05 0.004545636475086212
49 0.060373447835445404 0.05 0.0043424139730632305
50 0.05901108309626579 0.05 0.0041486467234790325
51 0.05770260840654373 0.05 0.003966706804931164
52 0.05642452463507652 0.05 0.0037929322570562363
53 0.055193766951560974 0.05 0.003629270475357771
54 0.05400699004530907 0.05 0.0034748753532767296
55 0.05285178869962692 0.05 0.003327811136841774
56 0.051729198545217514 0.05 0.003187944646924734
57 0.05064058676362038 0.05 0.0030551794916391373
58 0.04959100857377052 0.05 0.002929848153144121
59 0.048574235290288925 0.05 0.002810937585309148
60 0.04758312180638313 0.05 0.0026973984204232693
61 0.046615682542324066 0.05 0.0025888290256261826
62 0.04567332938313484 0.05 0.0024852189235389233
63 0.044763170182704926 0.05 0.002387156942859292
64 0.04388730973005295 0.05 0.0022946540266275406
65 0.04302298277616501 0.05 0.0022051609121263027
66 0.04219445213675499 0.05 0.002121045719832182
67 0.04137025400996208 0.05 0.00203899247571826
68 0.04058457911014557 0.05 0.0019622822292149067
69 0.03981110453605652 0.05 0.0018881990108639002
70 0.03906140848994255 0.05 0.0018177536549046636
71 0.03833305463194847 0.05 0.0017505967989563942
72 0.0376143753528595 0.05 0.0016855705762282014
73 0.03692822903394699 0.05 0.0016246367013081908
74 0.03624806925654411 0.05 0.0015653411392122507
75 0.035595234483480453 0.05 0.0015094648115336895
76 0.03494696691632271 0.05 0.0014549840707331896
77 0.0343221090734005 0.05 0.0014034183695912361
78 0.03371046110987663 0.05 0.0013538444181904197
79 0.03311972692608833 0.05 0.0013068111147731543
80 0.03253303840756416 0.05 0.0012609227560460567
81 0.031971294432878494 0.05 0.0012177543248981237
82 0.031416699290275574 0.05 0.0011758728651329875
83 0.030876392498612404 0.05 0.0011357751209288836
84 0.03034721128642559 0.05 0.0010971773881465197
85 0.02983340062201023 0.05 0.0010603390401229262
86 0.02932855486869812 0.05 0.0010247563477605581
87 0.028836064040660858 0.05 0.0009906295454129577
88 0.02835843898355961 0.05 0.0009580847108736634
89 0.027887679636478424 0.05 0.0009265396511182189
90 0.027434153482317924 0.05 0.0008966488530859351
91 0.026977870613336563 0.05 0.0008670709212310612
92 0.026540586724877357 0.05 0.0008391899173147976
93 0.026113569736480713 0.05 0.00081240339204669
94 0.025689437985420227 0.05 0.000786227872595191
95 0.02528766542673111 0.05 0.0007618276285938919
96 0.02487938478589058 0.05 0.0007374261040240526
97 0.024487517774105072 0.05 0.0007143791299313307
98 0.024103473871946335 0.05 0.0006921472959220409
99 0.023725291714072227 0.05 0.0006705981795676053
tuning, 0, 0.0002085688611259684
tuning, 1, 0.0002085688611259684
tuning, 2, 0.00020687693904619664
tuning, 3, 0.00020403132657520473
tuning, 4, 0.0002004113921429962
tuning, 5, 0.00019627821166068316
tuning, 6, 0.00019195051572751254
tuning, 7, 0.0001871513668447733
tuning, 8, 0.00018231352441944182
tuning, 9, 0.00017777322500478476
tuning, 10, 0.00017334599397145212
tuning, 11, 0.0001693409722065553
tuning, 12, 0.0001657764514675364
tuning, 13, 0.0001626764569664374
tuning, 14, 0.00015963453915901482
tuning, 15, 0.00015675145550630987
tuning, 16, 0.00015405731392093003
tuning, 17, 0.0001513090537628159
tuning, 18, 0.00014883260882925242
tuning, 19, 0.00014662131434306502
tuning, 20, 0.00014452966570388526
tuning, 21, 0.00014228899090085179
tuning, 22, 0.000140198360895738
tuning, 23, 0.00013815412239637226
tuning, 24, 0.0001361805625492707
tuning, 25, 0.00013424991630017757
tuning, 26, 0.0001323493488598615
tuning, 27, 0.00013062258949503303
tuning, 28, 0.0001289508945774287
tuning, 29, 0.00012720479571726173
tuning, 30, 0.00012549622624646872
tuning, 31, 0.0001239711418747902
tuning, 32, 0.00012237402552273124
tuning, 33, 0.00012086054630344734
tuning, 34, 0.00011955221270909533
tuning, 35, 0.00011793855810537934
tuning, 36, 0.00011649230145849288
tuning, 37, 0.00011507567251101136
tuning, 38, 0.0001137023136834614
tuning, 39, 0.00011233990517212078
tuning, 40, 0.00011107436148449779
tuning, 41, 0.00010976811608998105
tuning, 42, 0.00010855881555471569
tuning, 43, 0.00010747274791356176
tuning, 44, 0.00010623339039739221
tuning, 45, 0.00010528496204642579
tuning, 46, 0.00010459990880917758
tuning, 47, 0.00010372813267167658
tuning, 48, 0.00010297009430360049
tuning, 49, 0.00010174693306908011
tuning, 50, 0.00010005342483054847
tuning, 51, 9.845574822975323e-05
tuning, 52, 9.734240302350372e-05
tuning, 53, 9.613576548872516e-05
tuning, 54, 9.535018762107939e-05
tuning, 55, 9.45151987252757e-05
tuning, 56, 9.353117638966069e-05
tuning, 57, 9.253169264411554e-05
tuning, 58, 9.145944932242855e-05
tuning, 59, 9.029517241287977e-05
tuning, 60, 8.939464896684512e-05
tuning, 61, 8.850461745169014e-05
tuning, 62, 8.758448529988527e-05
tuning, 63, 8.666135545354337e-05
tuning, 64, 8.575443644076586e-05
tuning, 65, 8.49161297082901e-05
tuning, 66, 8.409399015363306e-05
tuning, 67, 8.32483492558822e-05
tuning, 68, 8.251208055298775e-05
tuning, 69, 8.165803592419252e-05
tuning, 70, 8.059731044340879e-05
tuning, 71, 7.979960355442017e-05
tuning, 72, 7.899687625467777e-05
tuning, 73, 7.81546114012599e-05
tuning, 74, 7.74566869949922e-05
tuning, 75, 7.659320544917136e-05
tuning, 76, 7.579909288324416e-05
tuning, 77, 7.508319686166942e-05
tuning, 78, 7.431457925122231e-05
tuning, 79, 7.35979265300557e-05
tuning, 80, 7.276346877915785e-05
tuning, 81, 7.219061808427796e-05
tuning, 82, 7.14000707375817e-05
tuning, 83, 7.067874685162678e-05
tuning, 84, 7.000569894444197e-05
tuning, 85, 6.920684245415032e-05
tuning, 86, 6.84944970998913e-05
tuning, 87, 6.786004814784974e-05
tuning, 88, 6.719355587847531e-05
tuning, 89, 6.651593139395118e-05
tuning, 90, 6.593278521904722e-05
tuning, 91, 6.518820737255737e-05
tuning, 92, 6.462024612119421e-05
tuning, 93, 6.408465560525656e-05
tuning, 94, 6.338422826956958e-05
tuning, 95, 6.290359306149185e-05
tuning, 96, 6.22496590949595e-05
tuning, 97, 6.173488509375602e-05
tuning, 98, 6.134765862952918e-05
tuning, 99, 6.0722213675035164e-05
tuning, 100, 6.037099956301972e-05
tuning, 101, 5.9745296312030405e-05
tuning, 102, 5.9284189774189144e-05
tuning, 103, 5.874406997463666e-05
tuning, 104, 5.8312052715336904e-05
tuning, 105, 5.785339089925401e-05
tuning, 106, 5.7449091400485486e-05
tuning, 107, 5.697377127944492e-05
tuning, 108, 5.657954534399323e-05
tuning, 109, 5.6131269957404584e-05
tuning, 110, 5.572344525717199e-05
tuning, 111, 5.54280704818666e-05
tuning, 112, 5.490595503943041e-05
tuning, 113, 5.455302743939683e-05
tuning, 114, 5.4158561397343874e-05
