
  0%|                                                                                                                                                                                                                                                                                            | 0/10 [00:00<?, ?it/s]
0, 0.1364392638206482
1, 0.1364392638206482
2, 0.129792258143425
3, 0.11694809049367905
4, 0.09893592447042465
5, 0.07756029069423676
6, 0.05549614131450653
7, 0.03876924514770508
8, 0.027032937854528427
9, 0.01946832984685898
10, 0.015013500116765499
11, 0.012621184810996056
12, 0.011441616341471672
13, 0.010877177119255066
14, 0.010553337633609772
15, 0.010261213406920433
16, 0.009896495379507542
17, 0.009427524171769619
18, 0.008864426985383034
19, 0.008234716951847076
20, 0.007574064191430807
21, 0.006915263365954161
22, 0.006289619952440262
23, 0.005724533461034298
24, 0.005234085954725742
25, 0.004823054186999798
26, 0.004488750360906124
27, 0.004223342053592205
28, 0.004013530910015106
29, 0.0038443333469331264
30, 0.0037004852201789618
31, 0.003569126594811678
32, 0.00343933398835361
33, 0.003304443322122097
34, 0.003160521388053894
35, 0.0030070855282247066
36, 0.002845839597284794
37, 0.002679963130503893
38, 0.0025135460309684277
39, 0.002350776456296444
40, 0.0021956302225589752
41, 0.0020511969923973083
42, 0.001919768750667572
43, 0.0018022091826424003
44, 0.001698486041277647
45, 0.0016076038591563702
46, 0.0015279510989785194
47, 0.0014575914246961474
48, 0.0013943673111498356
49, 0.0013363829348236322
50, 0.0012820668052881956
51, 0.0012305699056014419
52, 0.0011811841977760196
53, 0.0011337955947965384
54, 0.0010885325027629733
55, 0.0010455840965732932
56, 0.0010052028810605407
57, 0.0009675131877884269
58, 0.0009326144936494529
59, 0.0009002654696814716
60, 0.0008702703635208309
61, 0.0008422145619988441
62, 0.0008158357813954353
63, 0.0007907935651019216
64, 0.0007668486214242876
65, 0.0007438444881699979
66, 0.0007217034581117332
67, 0.0007004328072071075
68, 0.0006801436538808048
69, 0.000660909281577915
70, 0.0006428376073017716
71, 0.0006259328220039606
72, 0.0006102333427406847
73, 0.0005956399254500866
74, 0.0005820797523483634
75, 0.000569426454603672
76, 0.0005575655959546566
77, 0.0005463951965793967
78, 0.000535783707164228
79, 0.0005256830481812358
80, 0.0005160053260624409
81, 0.0005067310994490981
82, 0.0004978467477485538
83, 0.0004893516888841987
84, 0.00048122729640454054
85, 0.0004734767135232687
86, 0.00046607782132923603
87, 0.0004590108001139015
88, 0.0004522349627222866
89, 0.00044575094943866134
90, 0.00043953987187705934
91, 0.00043356348760426044
92, 0.00042780928197316825
93, 0.0004222816205583513
94, 0.0004169360618107021
95, 0.0004117607604712248
96, 0.0004067455301992595
97, 0.00040187034755945206
98, 0.000397148251067847
99, 0.0003925712953787297
100, 0.00038809410762041807
101, 0.0003837662225123495
102, 0.00037957896711304784
103, 0.0003755160141736269
104, 0.00037157832412049174
105, 0.0003677448257803917
106, 0.00036403973354026675
107, 0.0003604278899729252
108, 0.0003569179680198431
109, 0.0003534650895744562
110, 0.00035010333522222936
111, 0.0003468289505690336
112, 0.00034361379221081734
113, 0.0003404718008823693
114, 0.00033739698119461536
115, 0.0003344121796544641
116, 0.00033146835630759597
117, 0.000328597379848361
118, 0.00032580550760030746
119, 0.000323066720739007
120, 0.000320380087941885
121, 0.00031774857779964805
122, 0.0003151622076984495
123, 0.0003126335213892162
124, 0.00031014764681458473
125, 0.0003077052242588252
126, 0.0003053129476029426
127, 0.00030296554905362427
128, 0.0003006603510584682
129, 0.00029840218485333025
130, 0.0002961785066872835
131, 0.0002940003469120711
132, 0.00029187992913648486
133, 0.00028978328919038177
134, 0.0002877230872400105
135, 0.0002856950741261244
136, 0.0002837065258063376
137, 0.0002817454223986715
138, 0.0002798256173264235
139, 0.00027793552726507187
140, 0.0002760845818556845
141, 0.00027425491134636104
142, 0.00027245248202234507
143, 0.0002706905943341553
144, 0.00026896048802882433
145, 0.0002672455448191613
146, 0.00026557111414149404
147, 0.000263926456682384
148, 0.0002623078180477023
149, 0.000260712462477386
150, 0.00025913806166499853
151, 0.00025759695563465357
152, 0.0002560707798693329
153, 0.00025457504671067
154, 0.0002531055943109095
155, 0.0002516451058909297
156, 0.0002502189017832279
157, 0.0002488130994606763
158, 0.00024741943343542516
159, 0.0002460532705299556
160, 0.00024469709023833275
161, 0.00024335639318451285
162, 0.00024203737848438323
163, 0.00024072446103673428
164, 0.0002394270122749731
165, 0.00023815913300495595
166, 0.00023689802037552
167, 0.00023564515868201852
168, 0.00023440644145011902
169, 0.00023318672901950777
170, 0.0002319736813660711
171, 0.0002307773393113166
172, 0.00022958603221923113
173, 0.0002284143411088735
174, 0.00022724829614162445
175, 0.0002260916808154434
176, 0.00022494110453408211
177, 0.00022379930305760354
178, 0.00022267205349635333
179, 0.00022154665202833712
180, 0.0002204326883656904
181, 0.00021934664982836694
182, 0.00021827835007570684
183, 0.00021722707606386393
184, 0.00021617846505250782
185, 0.0002151498047169298
186, 0.0002141334698535502
187, 0.00021312669559847564
188, 0.00021213199943304062
189, 0.0002111475623678416
190, 0.00021017726976424456
191, 0.00020922084513586015
192, 0.00020827550906687975
193, 0.00020734730060212314
194, 0.00020643402240239084
195, 0.00020553833746816963
196, 0.00020465394482016563
197, 0.00020377126929815859
198, 0.00020291433611419052
199, 0.0002020597894443199
200, 0.00020121302804909647
201, 0.00020039451192133129
202, 0.00019957064068876207
203, 0.00019875739235430956
204, 0.00019796098058577627
205, 0.00019717896066140383
206, 0.00019639983656816185
207, 0.00019563216483220458
208, 0.00019487155077513307
209, 0.00019412713299971074
210, 0.00019338801212143153
211, 0.00019265656010247767
212, 0.00019194353080820292
213, 0.00019122978847008198
214, 0.00019052803691010922
215, 0.00018984137568622828
216, 0.00018915662076324224
217, 0.0001884785306174308
218, 0.00018780675600282848
219, 0.00018715181795414537
220, 0.00018650159472599626
221, 0.0001858566829469055
222, 0.0001852228888310492
223, 0.00018460775027051568
224, 0.00018398095562588423
225, 0.00018337563960812986
226, 0.00018277174967806786
227, 0.00018218447803519666
228, 0.0001816023577703163
229, 0.00018101987370755523
230, 0.00018045077740680426
231, 0.00017989175103139132
232, 0.00017933410708792508
233, 0.00017878066864795983
234, 0.0001782392937457189
235, 0.00017770733393263072
236, 0.00017717501032166183
237, 0.0001766414352459833
238, 0.00017613379168324172
239, 0.00017561297863721848
240, 0.00017511243640910834
241, 0.0001746023044688627
242, 0.00017411320004612207
243, 0.000173620690475218
244, 0.00017313178977929056
245, 0.0001726621703710407
246, 0.00017218466382473707
247, 0.00017172085063066334
248, 0.0001712577504804358
249, 0.00017079296230804175
250, 0.0001703371963230893
251, 0.00016989698633551598
252, 0.00016945081006269902
253, 0.0001690074277576059
254, 0.00016857728769537061
255, 0.00016815189155749977
256, 0.00016772669914644212
257, 0.0001673083461355418
258, 0.00016689242329448462
259, 0.00016647284792270511
260, 0.0001660707057453692
261, 0.00016566422709729522
262, 0.00016526892432011664
263, 0.00016486621461808681
264, 0.00016448191308882087
265, 0.0001640969276195392
266, 0.00016371294623240829
267, 0.00016333692474290729
268, 0.0001629689650144428
269, 0.00016258287359960377
270, 0.00016222290287259966
271, 0.00016186035645660013
272, 0.00016149916336871684
273, 0.00016113658784888685
274, 0.00016079015040304512
275, 0.0001604359713383019
276, 0.0001600881078047678
277, 0.0001597527734702453
278, 0.00015940956654958427
279, 0.00015907033230178058
280, 0.00015874012024141848
281, 0.00015841604908928275
282, 0.00015808772877790034
283, 0.00015776358486618847
284, 0.00015744156553409994
285, 0.00015712865570094436
286, 0.00015681699733249843
287, 0.00015650303976144642
288, 0.00015619577607139945
289, 0.00015588916721753776
290, 0.00015558974700979888
291, 0.00015528369112871587
292, 0.00015499212895520031
293, 0.00015468825586140156
294, 0.00015439526760019362
295, 0.00015410959895234555
296, 0.00015382283891085535
297, 0.00015353411436080933
298, 0.00015325227286666632
299, 0.00015297233767341822
300, 0.00015268688730429858
301, 0.000152413675095886
302, 0.00015213638835120946
303, 0.00015186343807727098
304, 0.00015159259783104062
305, 0.00015132492990233004
306, 0.00015105515194591135
307, 0.0001507817069068551
308, 0.00015052306116558611
309, 0.0001502619998063892
310, 0.0001499883073847741
311, 0.00014973466750234365
312, 0.00014947212184779346
313, 0.00014921347610652447
314, 0.0001489570422563702
315, 0.0001487031695432961
316, 0.0001484394888393581
317, 0.0001481818762840703
318, 0.0001479267084505409
319, 0.00014766982349101454
320, 0.00014741209452040493
321, 0.00014715811994392425
322, 0.00014690152602270246
323, 0.0001466476678615436
324, 0.00014639378059655428
325, 0.00014614660176448524
326, 0.0001458973129047081
327, 0.00014565634774044156
328, 0.0001454190642107278
329, 0.00014516347437165678
330, 0.00014493142953142524
331, 0.00014469822053797543
332, 0.00014445639681071043
333, 0.0001442182983737439
334, 0.00014398795610759407
335, 0.00014375879254657775
336, 0.00014352321159094572
337, 0.00014330388512462378
338, 0.00014307841775007546
339, 0.0001428550312994048
340, 0.00014263999764807522
341, 0.00014242451288737357
342, 0.0001422193890903145
343, 0.00014201574958860874
344, 0.00014180471771396697
345, 0.00014160506543703377
346, 0.00014141021529212594
347, 0.00014121743151918054
348, 0.00014102038403507322
349, 0.00014083609858062118
350, 0.0001406544033670798
351, 0.0001404755312250927
352, 0.00014030297461431473
353, 0.00014012916653882712
354, 0.00013996416237205267
355, 0.00013979367213323712
356, 0.00013963575474917889
357, 0.00013947839033789933
358, 0.00013930938439443707
359, 0.0001391554978908971
360, 0.0001390076067764312
361, 0.000138860588776879
362, 0.0001387078664265573
363, 0.00013856776058673859
364, 0.00013841697364114225
365, 0.00013827995280735195
366, 0.00013814365956932306
367, 0.00013801231398247182
368, 0.00013787613715976477
369, 0.00013774377293884754
370, 0.0001376204309053719
371, 0.00013749097706750035
372, 0.0001373642880935222
373, 0.00013723928714171052
374, 0.00013711217616219074
375, 0.00013699705596081913
376, 0.0001368767989333719
377, 0.0001367665099678561
378, 0.0001366494980175048
379, 0.0001365379721391946
380, 0.00013643072452396154
381, 0.00013632362242788076
382, 0.00013621218386106193
383, 0.00013610886526294053
384, 0.00013600474630948156
385, 0.0001359015004709363
386, 0.00013580932863987982
387, 0.00013571593444794416
388, 0.00013562495587393641
389, 0.000135520298499614
390, 0.00013543498062063009
391, 0.00013534082972910255
392, 0.0001352527760900557
393, 0.00013516655599232763
394, 0.00013507818221114576
395, 0.0001349991071037948
396, 0.00013491288700606674
397, 0.00013482951908372343
398, 0.00013475105515681207
399, 0.00013467238750308752
400, 0.0001346029166597873
401, 0.0001345266937278211
402, 0.00013444932119455189
403, 0.0001343789917882532
404, 0.00013430541730485857
405, 0.00013423647033050656
406, 0.00013416742149274796
407, 0.00013410093379206955
408, 0.00013404194032773376
409, 0.00013396982103586197
410, 0.00013390800449997187
411, 0.0001338500587735325
412, 0.00013379458687268198
413, 0.00013372987450566143
414, 0.00013367243809625506
415, 0.0001336205459665507
416, 0.00013356869749259204
417, 0.00013350459630601108
418, 0.00013346062041819096
419, 0.00013341450539883226
420, 0.00013336521806195378
421, 0.0001333146938122809
422, 0.00013326923362910748
423, 0.00013322560698725283
424, 0.00013317400589585304
425, 0.00013313042290974408
426, 0.0001330845116171986
427, 0.00013305034372024238
428, 0.00013300831778906286
429, 0.0001329620135948062
430, 0.00013292612857185304
431, 0.00013289469643495977
432, 0.00013285430031828582
433, 0.00013281733845360577
434, 0.0001327781064901501
435, 0.00013274949742481112
436, 0.0001327185018453747
437, 0.00013268865586724132
438, 0.0001326582714682445
439, 0.0001326261553913355
440, 0.00013260013656690717
441, 0.00013257551472634077
442, 0.00013254617806524038
443, 0.00013251921336632222
444, 0.0001324924232903868
445, 0.00013247398601379246
446, 0.0001324458426097408
447, 0.00013242196291685104
448, 0.00013239879626780748
449, 0.0001323714677710086
450, 0.000132357410620898
451, 0.00013233812933322042
452, 0.000132321089040488
453, 0.00013230546028353274
454, 0.00013228408352006227
455, 0.0001322683528997004
456, 0.00013225196744315326
457, 0.00013223625137470663
458, 0.00013221957487985492
459, 0.00013220508117228746
460, 0.00013219460379332304
461, 0.00013218502863310277
462, 0.00013217040395829827
463, 0.0001321599120274186
464, 0.00013215198123361915
465, 0.0001321394374826923
466, 0.0001321289164479822
467, 0.00013212161138653755
468, 0.00013211433542892337
469, 0.00013210022007115185
470, 0.0001320942974416539
471, 0.00013208642485551536
472, 0.00013208138989284635
473, 0.0001320742885582149
474, 0.00013206606672611088
475, 0.00013205822324380279
476, 0.00013205652066972107
477, 0.00013205139839556068
478, 0.0001320453593507409
479, 0.00013204514107201248
480, 0.00013203654089011252
481, 0.00013203543494455516
482, 0.00013203319394961
483, 0.00013202943955548108
484, 0.0001320248411502689
485, 0.00013202415721025318
486, 0.00013202158152125776
487, 0.00013202210539020598
488, 0.0001320189330726862
489, 0.0001320169394602999
490, 0.00013201340334489942
491, 0.00013201222463976592
492, 0.00013201356341596693
493, 0.00013201290857978165
494, 0.00013201356341596693
495, 0.00013201414549257606
496, 0.00013201433466747403
497, 0.00013201629917602986
498, 0.00013201398542150855
499, 0.00013201331603340805
0 2.6236178874969482 0.05 7.881288528442383
1 2.462689161300659 0.05 6.944088459014893
2 2.2939183712005615 0.05 6.024929046630859
3 2.0936765670776367 0.05 5.01897668838501
4 1.8243036270141602 0.05 3.810573101043701
5 1.4279168844223022 0.05 2.334543228149414
6 0.9878994226455688 0.05 1.1174330711364746
7 0.6630682349205017 0.05 0.5033991932868958
8 0.5336292386054993 0.05 0.3260433077812195
9 0.4436089098453522 0.05 0.22531835734844208
10 0.3746818006038666 0.05 0.160739004611969
11 0.324991375207901 0.05 0.12093158066272736
12 0.285758376121521 0.05 0.09349621087312698
13 0.2539135217666626 0.05 0.07381892204284668
14 0.22851301729679108 0.05 0.0597885400056839
15 0.2085287868976593 0.05 0.04978838562965393
16 0.19263045489788055 0.05 0.042486004531383514
17 0.1796424239873886 0.05 0.036949947476387024
18 0.16875210404396057 0.05 0.032605767250061035
19 0.15939870476722717 0.05 0.02909146621823311
20 0.1512233465909958 0.05 0.02618386410176754
21 0.1439734548330307 0.05 0.023733453825116158
22 0.13748805224895477 0.05 0.02164342626929283
23 0.13160322606563568 0.05 0.01983029395341873
24 0.12624379992485046 0.05 0.01824803650379181
25 0.12133361399173737 0.05 0.01685614511370659
26 0.11679954081773758 0.05 0.015619901940226555
27 0.11261094361543655 0.05 0.014519684948027134
28 0.10871415585279465 0.05 0.013532194308936596
29 0.10508474707603455 0.05 0.012643735855817795
30 0.1016974225640297 0.05 0.011841751635074615
31 0.09851540625095367 0.05 0.011112309992313385
32 0.0955236628651619 0.05 0.01044763345271349
33 0.09269361197948456 0.05 0.009837748482823372
34 0.09003428369760513 0.05 0.009281366132199764
35 0.08750211447477341 0.05 0.008766639977693558
36 0.08510894328355789 0.05 0.008293664082884789
37 0.08282076567411423 0.05 0.007853703573346138
38 0.08063670992851257 0.05 0.007444947957992554
39 0.0785730704665184 0.05 0.007068764418363571
40 0.07657316327095032 0.05 0.0067135039716959
41 0.0746692642569542 0.05 0.006383808329701424
42 0.0728449895977974 0.05 0.006075686775147915
43 0.07107501477003098 0.05 0.005784022621810436
44 0.06939778476953506 0.05 0.00551426038146019
45 0.06776218861341476 0.05 0.005257397890090942
46 0.06620188057422638 0.05 0.005018070340156555
47 0.06468498706817627 0.05 0.004790744744241238
48 0.06322190165519714 0.05 0.004576476290822029
49 0.06180575489997864 0.05 0.004373748786747456
50 0.060436151921749115 0.05 0.004182054661214352
51 0.05910559743642807 0.05 0.003999938257038593
52 0.0578504353761673 0.05 0.00383185688406229
53 0.056581225246191025 0.05 0.003665563650429249
54 0.055391423404216766 0.05 0.003513023490086198
55 0.05422259494662285 0.05 0.0033663297072052956
56 0.053082175552845 0.05 0.0032262164168059826
57 0.05200720205903053 0.05 0.003096870146691799
58 0.0509246401488781 0.05 0.002969285473227501
59 0.049888379871845245 0.05 0.0028496719896793365
60 0.04887698218226433 0.05 0.002735299291089177
61 0.04790892079472542 0.05 0.002628020942211151
62 0.04694915935397148 0.05 0.0025237812660634518
63 0.04604722559452057 0.05 0.0024277442134916782
64 0.045129213482141495 0.05 0.002331908792257309
65 0.04427218437194824 0.05 0.002244181465357542
66 0.04341232031583786 0.05 0.002157853916287422
67 0.04259200766682625 0.05 0.0020770756527781487
68 0.041781868785619736 0.05 0.0019988110288977623
69 0.041005127131938934 0.05 0.001925184391438961
70 0.04022500291466713 0.05 0.001852627843618393
71 0.03948693722486496 0.05 0.00178526621311903
72 0.038771696388721466 0.05 0.0017211773665621877
73 0.03804883733391762 0.05 0.001657596556469798
74 0.0373716801404953 0.05 0.0015991207910701632
75 0.03669395670294762 0.05 0.001541647594422102
76 0.03604336082935333 0.05 0.0014874646440148354
77 0.03540082275867462 0.05 0.0014349037082865834
78 0.03478027135133743 0.05 0.0013850389514118433
79 0.03416803851723671 0.05 0.0013367068022489548
80 0.0335882194340229 0.05 0.00129172473680228
81 0.03299110010266304 0.05 0.001246205298230052
82 0.032437995076179504 0.05 0.001204769592732191
83 0.03187946230173111 0.05 0.0011636384297162294
84 0.03133871778845787 0.05 0.001124497503042221
85 0.03081243485212326 0.05 0.0010870464611798525
86 0.03029750846326351 0.05 0.0010510171996429563
87 0.029796408489346504 0.05 0.0010165387066081166
88 0.029304824769496918 0.05 0.0009832734940573573
89 0.028825528919696808 0.05 0.0009513725526630878
90 0.028348257765173912 0.05 0.0009201291250064969
91 0.02789539285004139 0.05 0.0008909656899049878
92 0.027445515617728233 0.05 0.0008624597103334963
93 0.02701098844408989 0.05 0.0008353664306923747
94 0.02657291665673256 0.05 0.000808489799965173
95 0.026159754022955894 0.05 0.0007835439755581319
96 0.025738835334777832 0.05 0.0007585318526253104
97 0.02534583956003189 0.05 0.0007355452980846167
98 0.02493956685066223 0.05 0.0007121539674699306
99 0.02456701174378395 0.05 0.0006910360534675419
tuning, 0, 0.0001773700787452981
tuning, 1, 0.0001773700787452981
tuning, 2, 0.00017567856411915272
tuning, 3, 0.0001727987255435437
tuning, 4, 0.00016914386651478708
tuning, 5, 0.00016508290718775243
tuning, 6, 0.0001605469296919182
tuning, 7, 0.00015593282296322286
tuning, 8, 0.0001511607551947236
tuning, 9, 0.00014673214172944427
tuning, 10, 0.0001426532689947635
tuning, 11, 0.00013884414511267096
tuning, 12, 0.0001356897846562788
tuning, 13, 0.0001328895305050537
tuning, 14, 0.00013029341062065214
tuning, 15, 0.00012775461073033512
tuning, 16, 0.00012557191075757146
tuning, 17, 0.00012326220166869462
tuning, 18, 0.00012125525245210156
tuning, 19, 0.00011932356574106961
tuning, 20, 0.00011735024600056931
tuning, 21, 0.00011562645522644743
tuning, 22, 0.00011381247168174013
tuning, 23, 0.00011205823830096051
tuning, 24, 0.00011019750672858208
tuning, 25, 0.00010859254689421505
tuning, 26, 0.00010696570097934455
tuning, 27, 0.0001053128726198338
tuning, 28, 0.00010376254795119166
tuning, 29, 0.000102319369034376
tuning, 30, 0.00010078887862619013
tuning, 31, 9.939716983353719e-05
tuning, 32, 9.824287553783506e-05
tuning, 33, 9.667258564149961e-05
tuning, 34, 9.533524280413985e-05
tuning, 35, 9.407804463990033e-05
