
  0%|                                                                                                                                                                                                                                                                                                            | 0/1 [00:00<?, ?it/s]
0, 0.1364392638206482
1, 0.1364392638206482
2, 0.12979239225387573
3, 0.11694817245006561
4, 0.09893608093261719
5, 0.07756027579307556
6, 0.05549616366624832
7, 0.038773056119680405
8, 0.027045508846640587
9, 0.019489824771881104
10, 0.015038157813251019
11, 0.012640580534934998
12, 0.011447696015238762
13, 0.010865271091461182
14, 0.010523682460188866
15, 0.01021555345505476
16, 0.009841377846896648
17, 0.009367216378450394
18, 0.008805224671959877
19, 0.008180961012840271
20, 0.007529853843152523
21, 0.0068802423775196075
22, 0.006261850707232952
23, 0.005697069223970175
24, 0.005200961604714394
25, 0.004778000526130199
26, 0.004425354301929474
27, 0.004136759787797928
28, 0.0039022215642035007
29, 0.0037089705001562834
30, 0.0035453098826110363
31, 0.0034007576759904623
32, 0.0032659685239195824
33, 0.003134544473141432
34, 0.0030030186753720045
35, 0.0028688765596598387
36, 0.002732101595029235
37, 0.0025934716686606407
38, 0.0024547872599214315
39, 0.0023181638680398464
40, 0.0021858965046703815
41, 0.002059885999187827
42, 0.0019417235162109137
43, 0.0018322775140404701
44, 0.0017320914193987846
45, 0.0016413393896073103
46, 0.0015595380682498217
47, 0.0014860422816127539
48, 0.0014202769380062819
49, 0.001361242844723165
50, 0.0013079477939754725
51, 0.001259671407751739
52, 0.0012156290467828512
53, 0.0011752457357943058
54, 0.0011378936469554901
55, 0.001103389891795814
56, 0.0010712792864069343
57, 0.0010414216667413712
58, 0.0010135984048247337
59, 0.0009876710828393698
60, 0.0009635660680942237
61, 0.0009412842337042093
62, 0.0009204846573993564
63, 0.0009013348026201129
64, 0.0008836042834445834
65, 0.0008672530530020595
66, 0.0008522362331859767
67, 0.0008383239037357271
68, 0.0008256090804934502
69, 0.0008138722623698413
70, 0.0008030922035686672
71, 0.0007932404987514019
72, 0.0007841242477297783
73, 0.0007758317515254021
74, 0.0007682616706006229
75, 0.000761287403292954
76, 0.0007549292640760541
77, 0.0007491337601095438
78, 0.0007438556640408933
79, 0.0007390675600618124
80, 0.0007347372593358159
81, 0.0007308230269700289
82, 0.0007273362716659904
83, 0.0007242251886054873
84, 0.0007214465877041221
85, 0.0007189441821537912
86, 0.000716821406967938
87, 0.0007149636512622237
88, 0.0007133395411074162
89, 0.00071198760997504
90, 0.0007108493591658771
91, 0.0007098775240592659
92, 0.0007091122679412365
93, 0.000708480307366699
94, 0.0007080137729644775
95, 0.0007076775655150414
96, 0.0007074213353917003
97, 0.0007072814623825252
98, 0.0007071951404213905
99, 0.000707153114490211
0 2.4191036224365234 0.05 7.6405158042907715
1 2.259054660797119 0.05 6.662959098815918
2 2.09157395362854 0.05 5.711630821228027
3 1.8938100337982178 0.05 4.682593822479248
4 1.6141152381896973 0.05 3.4015960693359375
5 1.2362470626831055 0.05 1.9953734874725342
6 0.8045571446418762 0.05 0.8451377153396606
7 0.5749083757400513 0.05 0.4315299987792969
8 0.4720861613750458 0.05 0.2909753620624542
9 0.3923181891441345 0.05 0.20095118880271912
10 0.33783090114593506 0.05 0.14900898933410645
11 0.2966781556606293 0.05 0.11491713672876358
12 0.26517996191978455 0.05 0.09181107580661774
13 0.24007193744182587 0.05 0.07524826377630234
14 0.21956279873847961 0.05 0.06294064223766327
15 0.20263521373271942 0.05 0.05360971391201019
16 0.18851454555988312 0.05 0.04639844223856926
17 0.17652036249637604 0.05 0.040682099759578705
18 0.1661897897720337 0.05 0.03605972230434418
19 0.1571217030286789 0.05 0.03223190829157829
20 0.14906734228134155 0.05 0.02901206910610199
21 0.14183427393436432 0.05 0.026264920830726624
22 0.1352853924036026 0.05 0.023895462974905968
23 0.1293116807937622 0.05 0.021831780672073364
24 0.12385094165802002 0.05 0.020026832818984985
25 0.11883971095085144 0.05 0.018438978120684624
26 0.11421002447605133 0.05 0.017030294984579086
27 0.10993868112564087 0.05 0.015780281275510788
28 0.10597404837608337 0.05 0.014662658795714378
29 0.1022844910621643 0.05 0.01365944929420948
30 0.09884124249219894 0.05 0.01275528222322464
31 0.09561741352081299 0.05 0.011936793103814125
32 0.09259233623743057 0.05 0.011193444952368736
33 0.0897420272231102 0.05 0.010514906607568264
34 0.0870484709739685 0.05 0.009893182665109634
35 0.08449694514274597 0.05 0.009321711957454681
36 0.08207784593105316 0.05 0.008795603178441525
37 0.07977563887834549 0.05 0.008309105411171913
38 0.07757985591888428 0.05 0.007857992313802242
39 0.07548872381448746 0.05 0.007440084591507912
40 0.07348417490720749 0.05 0.007050198502838612
41 0.07156749814748764 0.05 0.0066872150637209415
42 0.06972707808017731 0.05 0.006347703747451305
43 0.06796440482139587 0.05 0.006030824966728687
44 0.06626167893409729 0.05 0.005732427351176739
45 0.06462765485048294 0.05 0.005453187972307205
46 0.06305769830942154 0.05 0.005191463977098465
47 0.06153655797243118 0.05 0.004944018088281155
48 0.06007274240255356 0.05 0.0047116028144955635
49 0.058662619441747665 0.05 0.004493001848459244
50 0.05729227513074875 0.05 0.004285543225705624
51 0.055969711393117905 0.05 0.004089966416358948
52 0.05469738319516182 0.05 0.0039061307907104492
53 0.05345757678151131 0.05 0.0037310603074729443
54 0.05225704237818718 0.05 0.0035653598606586456
55 0.05110061541199684 0.05 0.003409305587410927
56 0.049975935369729996 0.05 0.0032608855981379747
57 0.04888413846492767 0.05 0.003119964152574539
58 0.04783114045858383 0.05 0.0029869992285966873
59 0.04680078104138374 0.05 0.0028596960473805666
60 0.04580536112189293 0.05 0.002739342162385583
61 0.04484527185559273 0.05 0.0026257114950567484
62 0.04390186443924904 0.05 0.002516399370506406
63 0.04299139231443405 0.05 0.0024131075479090214
64 0.04210776835680008 0.05 0.002314931247383356
65 0.041243165731430054 0.05 0.002220841823145747
66 0.040410365909338 0.05 0.0021320590749382973
67 0.03959836810827255 0.05 0.0020472377073019743
68 0.0388028547167778 0.05 0.0019658077508211136
69 0.03803415969014168 0.05 0.00188869284465909
70 0.03728600591421127 0.05 0.0018151199910789728
71 0.036554884165525436 0.05 0.001744634471833706
72 0.035845592617988586 0.05 0.0016775873955339193
73 0.03515859320759773 0.05 0.0016138999490067363
74 0.034485504031181335 0.05 0.0015526972711086273
75 0.03383490443229675 0.05 0.0014946640003472567
76 0.033189207315444946 0.05 0.0014381608925759792
77 0.032570015639066696 0.05 0.0013849993702024221
78 0.03196680545806885 0.05 0.0013341729063540697
79 0.03137626871466637 0.05 0.0012853349326178432
80 0.0308037418872118 0.05 0.0012388553004711866
81 0.03024030104279518 0.05 0.0011939494870603085
82 0.029695728793740273 0.05 0.001151334960013628
83 0.029159871861338615 0.05 0.0011101581621915102
84 0.02863924577832222 0.05 0.0010708703193813562
85 0.028133409097790718 0.05 0.0010333760874345899
86 0.027636580169200897 0.05 0.000997199909761548
87 0.0271543450653553 0.05 0.0009627030231058598
88 0.026679718866944313 0.05 0.000929343281313777
89 0.02622329629957676 0.05 0.0008978178957477212
90 0.02577338181436062 0.05 0.0008672743570059538
91 0.025332238525152206 0.05 0.0008378394995816052
92 0.024903520941734314 0.05 0.0008097206009551883
93 0.024487515911459923 0.05 0.0007828943198546767
94 0.024077631533145905 0.05 0.0007569047156721354
95 0.02367636375129223 0.05 0.0007318863645195961
96 0.02328549139201641 0.05 0.0007079205242916942
97 0.02290286310017109 0.05 0.0006848465418443084
98 0.022529523819684982 0.05 0.0006627011462114751
99 0.02216649241745472 0.05 0.000641516235191375
100 0.021807800978422165 0.05 0.0006209225975908339
101 0.021459484472870827 0.05 0.0006012460798956454
102 0.021112769842147827 0.05 0.0005819746293127537
103 0.020780159160494804 0.05 0.0005637823487631977
104 0.02045629173517227 0.05 0.0005463456036522985
105 0.02013658732175827 0.05 0.0005294018774293363
106 0.01982232742011547 0.05 0.0005130065837875009
107 0.01951325684785843 0.05 0.0004971337621100247
108 0.019215421751141548 0.05 0.00048207383952103555
109 0.0189199335873127 0.05 0.0004673614166676998
110 0.018631963059306145 0.05 0.0004532427992671728
111 0.01834794133901596 0.05 0.0004395298601593822
112 0.018075965344905853 0.05 0.00042659591417759657
113 0.01780274324119091 0.05 0.00041379721369594336
114 0.01753714680671692 0.05 0.0004015425220131874
115 0.01727893017232418 0.05 0.0003898050053976476
116 0.017024366185069084 0.05 0.00037840387085452676
117 0.01676963083446026 0.05 0.0003671644954010844
118 0.01653365232050419 0.05 0.00035690393997356296
119 0.016289616003632545 0.05 0.0003464458277449012
120 0.01605520211160183 0.05 0.0003365466254763305
121 0.015825895592570305 0.05 0.0003270018787588924
122 0.015599646605551243 0.05 0.000317719008307904
123 0.015380250290036201 0.05 0.0003088449011556804
124 0.015157951973378658 0.05 0.0002999817079398781
125 0.014947033487260342 0.05 0.00029169145273044705
126 0.014736340381205082 0.05 0.00028352602384984493
127 0.014527254737913609 0.05 0.00027553754625841975
128 0.014330198056995869 0.05 0.00026811310090124607
129 0.014131549745798111 0.05 0.00026073132175952196
130 0.013934830203652382 0.05 0.00025352282682433724
131 0.01374194398522377 0.05 0.00024655283777974546
132 0.013558167032897472 0.05 0.0002400024386588484
133 0.013377656228840351 0.05 0.0002336542820557952
134 0.013194780796766281 0.05 0.00022730973432771862
135 0.013015038333833218 0.05 0.00022115898900665343
136 0.012840070761740208 0.05 0.0002152526576537639
137 0.012673535384237766 0.05 0.00020970520563423634
138 0.012502654455602169 0.05 0.00020408831187523901
139 0.012337841093540192 0.05 0.00019874305871780962
140 0.012176601216197014 0.05 0.00019358241115696728
141 0.012016278691589832 0.05 0.00018851837376132607
142 0.011857681907713413 0.05 0.00018357488443143666
143 0.011702985502779484 0.05 0.00017881626263260841
144 0.011551359668374062 0.05 0.0001742127351462841
145 0.011404263786971569 0.05 0.0001698041014606133
146 0.01126016490161419 0.05 0.00016554008470848203
147 0.011111137457191944 0.05 0.00016118725761771202
148 0.01097034476697445 0.05 0.00015712823369540274
149 0.01083295326679945 0.05 0.00015321714454330504
150 0.010696920566260815 0.05 0.00014939332322683185
151 0.010559449903666973 0.05 0.00014557817485183477
152 0.010428237728774548 0.05 0.00014198273129295558
153 0.010297398082911968 0.05 0.00013844227942172438
154 0.010167555883526802 0.05 0.0001349729864159599
155 0.010045296512544155 0.05 0.00013174652121961117
156 0.009918542578816414 0.05 0.00012844268348999321
157 0.009798564016819 0.05 0.0001253541122423485
158 0.009677896276116371 0.05 0.00012228569539729506
159 0.009559378027915955 0.05 0.00011930893379030749
160 0.009443969465792179 0.05 0.00011644552432699129
161 0.009329071268439293 0.05 0.00011362935765646398
162 0.009212066419422626 0.05 0.0001107969437725842
163 0.00910300761461258 0.05 0.00010818909504450858
164 0.008992021903395653 0.05 0.00010556704364717007
165 0.008889230899512768 0.05 0.0001031672945828177
166 0.008783314377069473 0.05 0.00010072342411149293
167 0.008684017695486546 0.05 9.845892782323062e-05
168 0.008574418723583221 0.05 9.598934411769733e-05
169 0.008480248972773552 0.05 9.389250772073865e-05
170 0.00837333407253027 0.05 9.153991413768381e-05
171 0.008276749402284622 0.05 8.944030560087413e-05
172 0.008177436888217926 0.05 8.730680565349758e-05
173 0.00808571744710207 0.05 8.535929373465478e-05
174 0.007990351878106594 0.05 8.335764869116247e-05
175 0.007898272946476936 0.05 8.144753519445658e-05
176 0.007804758381098509 0.05 7.953029125928879e-05
177 0.007717539090663195 0.05 7.776269922032952e-05
178 0.007627698127180338 0.05 7.59627582738176e-05
179 0.007540029473602772 0.05 7.422664202749729e-05
180 0.007460303138941526 0.05 7.266522152349353e-05
181 0.007368550170212984 0.05 7.08888255758211e-05
182 0.007287777028977871 0.05 6.93431866238825e-05
183 0.007205350324511528 0.05 6.778347596991807e-05
184 0.007128990720957518 0.05 6.635439785895869e-05
185 0.007045536767691374 0.05 6.480997399194166e-05
186 0.006966596469283104 0.05 6.336581282084808e-05
187 0.0068846349604427814 0.05 6.18835911154747e-05
188 0.006810901686549187 0.05 6.056516576791182e-05
189 0.00673783989623189 0.05 5.9272744692862034e-05
190 0.006663085427135229 0.05 5.796481127617881e-05
191 0.0065896050073206425 0.05 5.669339225278236e-05
192 0.0065183257684111595 0.05 5.547352702706121e-05
193 0.006444417405873537 0.05 5.422268441179767e-05
194 0.006374534219503403 0.05 5.30530815012753e-05
195 0.006304911803454161 0.05 5.190052615944296e-05
196 0.006239414680749178 0.05 5.0827809900511056e-05
197 0.006168639753013849 0.05 4.9681246309773996e-05
198 0.006099599879235029 0.05 4.8575402615824714e-05
199 0.00603475421667099 0.05 4.7548062866553664e-05
200 0.005972498562186956 0.05 4.6572095016017556e-05
201 0.005905125290155411 0.05 4.552729660645127e-05
202 0.005845910403877497 0.05 4.4618813262786716e-05
203 0.005784149747341871 0.05 4.368101144791581e-05
204 0.005719233304262161 0.05 4.2706036765594035e-05
205 0.005660745315253735 0.05 4.183703276794404e-05
206 0.005602715536952019 0.05 4.098366844118573e-05
207 0.005542467813938856 0.05 4.010698467027396e-05
208 0.005496344529092312 0.05 3.944224226870574e-05
209 0.005426926072686911 0.05 3.845222818199545e-05
210 0.0053703966550529 0.05 3.765532892430201e-05
211 0.005316457711160183 0.05 3.6902722058584914e-05
212 0.0052582635544240475 0.05 3.6099267163081095e-05
213 0.005209594964981079 0.05 3.543411730788648e-05
214 0.005151786841452122 0.05 3.465209374553524e-05
215 0.005096865352243185 0.05 3.391720019862987e-05
216 0.0050416854210197926 0.05 3.318678500363603e-05
217 0.0049912286922335625 0.05 3.252585156587884e-05
218 0.0049420553259551525 0.05 3.1888121156953275e-05
219 0.004893457982689142 0.05 3.1264058634405956e-05
220 0.004841216374188662 0.05 3.060008384636603e-05
221 0.004791903775185347 0.05 2.997987758135423e-05
222 0.004743749741464853 0.05 2.9380367777775973e-05
223 0.004705272149294615 0.05 2.8905677027069032e-05
224 0.004647853784263134 0.05 2.8204509362694807e-05
225 0.004606008529663086 0.05 2.7698941266862676e-05
226 0.004558239132165909 0.05 2.7127382054459304e-05
227 0.004511698614805937 0.05 2.6576255550025962e-05
228 0.004466335289180279 0.05 2.604451401566621e-05
229 0.004424218088388443 0.05 2.5555638785590418e-05
230 0.0043780566193163395 0.05 2.5025134164025076e-05
231 0.0043343412689864635 0.05 2.4527867935830727e-05
232 0.004292135592550039 0.05 2.40525168919703e-05
233 0.004250216297805309 0.05 2.358499295951333e-05
234 0.004208535887300968 0.05 2.3124681320041418e-05
235 0.004166634753346443 0.05 2.2666501536150463e-05
236 0.004122981335967779 0.05 2.2194042685441673e-05
237 0.004090962931513786 0.05 2.185067205573432e-05
238 0.004046415910124779 0.05 2.1377392840804532e-05
239 0.0040031541138887405 0.05 2.092272916343063e-05
240 0.003968943376094103 0.05 2.0566643797792494e-05
241 0.003934335429221392 0.05 2.020954343606718e-05
242 0.0038906170520931482 0.05 1.9762897863984108e-05
243 0.0038518125656992197 0.05 1.9370640075067058e-05
244 0.0038175189401954412 0.05 1.9027253074455075e-05
245 0.0037816124968230724 0.05 1.867100399977062e-05
246 0.003740332555025816 0.05 1.8265607650391757e-05
247 0.0037080722395330667 0.05 1.7951882909983397e-05
248 0.0036725483369082212 0.05 1.7609565475140698e-05
249 0.003641687333583832 0.05 1.7314861906925216e-05
250 0.003602174576371908 0.05 1.6941163266892545e-05
251 0.0035706697963178158 0.05 1.6646121366648003e-05
252 0.003538812045007944 0.05 1.635041189729236e-05
253 0.0035026150289922953 0.05 1.6017636880860664e-05
254 0.003468831768259406 0.05 1.571014399814885e-05
255 0.0034387018531560898 0.05 1.5438416085089557e-05
256 0.003403902519494295 0.05 1.5127527149161324e-05
257 0.0033713842276483774 0.05 1.4839873983873986e-05
258 0.0033413481432944536 0.05 1.4576630746887531e-05
259 0.003314543981105089 0.05 1.434370187780587e-05
260 0.003277817042544484 0.05 1.4027591532794759e-05
261 0.0032499388325959444 0.05 1.3789991498924792e-05
262 0.0032201188150793314 0.05 1.3538093298848253e-05
263 0.0031894345302134752 0.05 1.3281314750202e-05
264 0.0031582931987941265 0.05 1.3023226529185195e-05
265 0.003131051314994693 0.05 1.2799531759810634e-05
266 0.0031004822812974453 0.05 1.2550823157653213e-05
267 0.0030727239791303873 0.05 1.232709655596409e-05
268 0.003045204095542431 0.05 1.2107277143513784e-05
269 0.003023206489160657 0.05 1.1932990673813038e-05
270 0.002991313813254237 0.05 1.1682549484248739e-05
271 0.002963727107271552 0.05 1.1468063348729629e-05
272 0.0029373462311923504 0.05 1.126481220126152e-05
273 0.002916032914072275 0.05 1.1101931704615708e-05
274 0.0028884029015898705 0.05 1.089254055841593e-05
275 0.0028575388714671135 0.05 1.0661000487743877e-05
276 0.002837697509676218 0.05 1.051346589520108e-05
277 0.0028088183607906103 0.05 1.0300563189957757e-05
278 0.0027808386366814375 0.05 1.0096369805978611e-05
279 0.0027560212183743715 0.05 9.916965609590989e-06
280 0.0027334224432706833 0.05 9.754999155120458e-06
281 0.002715009730309248 0.05 9.62401827564463e-06
282 0.002688053995370865 0.05 9.433863851882052e-06
283 0.002662940649315715 0.05 9.258415957447141e-06
284 0.002637324621900916 0.05 9.081149983103387e-06
285 0.0026168981567025185 0.05 8.941025953390636e-06
286 0.0025942306965589523 0.05 8.786802936811e-06
287 0.0025772296357899904 0.05 8.672013791510835e-06
288 0.002548356307670474 0.05 8.47879346110858e-06
289 0.002523010363802314 0.05 8.310971679748036e-06
290 0.0025020488537847996 0.05 8.173446985892951e-06
291 0.0024804817512631416 0.05 8.033147423702758e-06
292 0.0024569162633270025 0.05 7.881237252149731e-06
293 0.0024396954104304314 0.05 7.771142918500118e-06
294 0.002415483118966222 0.05 7.61766250434448e-06
295 0.0023943923879414797 0.05 7.4852168836514466e-06
296 0.0023744984064251184 0.05 7.361349616985535e-06
297 0.002354484051465988 0.05 7.2377765718556475e-06
298 0.002334428718313575 0.05 7.115000698831864e-06
299 0.002314056036993861 0.05 6.991356258367887e-06
300 0.0022936405148357153 0.05 6.868539458082523e-06
301 0.0022728098556399345 0.05 6.744346137566026e-06
302 0.0022594325710088015 0.05 6.665189630439272e-06
303 0.002234834246337414 0.05 6.5208523665205576e-06
304 0.0022245796862989664 0.05 6.461147222580621e-06
305 0.002197572262957692 0.05 6.305217539193109e-06
306 0.0021811993792653084 0.05 6.211612344486639e-06
307 0.002160717500373721 0.05 6.0955039771215525e-06
308 0.002149311825633049 0.05 6.0313223002594896e-06
309 0.0021246562246233225 0.05 5.893740762985544e-06
310 0.002107604406774044 0.05 5.799518021376571e-06
311 0.0020907421130687 0.05 5.707088348572142e-06
312 0.0020746884401887655 0.05 5.619780949928099e-06
313 0.0020573162473738194 0.05 5.526062523131259e-06
314 0.002037880476564169 0.05 5.422145022748737e-06
315 0.002020688960328698 0.05 5.3310486691771075e-06
316 0.0020124525763094425 0.05 5.287677595333662e-06
317 0.0019889860413968563 0.05 5.165081347513478e-06
318 0.0019722701981663704 0.05 5.078628419141751e-06
319 0.001954536186531186 0.05 4.987708052794915e-06
320 0.0019407568033784628 0.05 4.917630576528609e-06
321 0.001923874719068408 0.05 4.832448212255258e-06
322 0.001908843987621367 0.05 4.7572348194080405e-06
323 0.0018926418852061033 0.05 4.676819116866682e-06
324 0.0018785716965794563 0.05 4.607541086443234e-06
325 0.001861664350144565 0.05 4.524977157416288e-06
326 0.0018455893732607365 0.05 4.4471707951743156e-06
327 0.0018388258758932352 0.05 4.414636805449845e-06
328 0.0018149075331166387 0.05 4.300537511880975e-06
329 0.0017983372090384364 0.05 4.222366442263592e-06
330 0.0017840371001511812 0.05 4.155482201895211e-06
331 0.0017816803883761168 0.05 4.144510512560373e-06
332 0.0017588353948667645 0.05 4.0389090827375185e-06
