
  0%|                                                                                                                                                                                                                                                                                            | 0/10 [00:00<?, ?it/s]
0, 0.1364392638206482
1, 0.1364392638206482
2, 0.12979227304458618
3, 0.11694797873497009
4, 0.09893613308668137
5, 0.07756029069423676
6, 0.05549614876508713
7, 0.03876939043402672
8, 0.027033042162656784
9, 0.019468799233436584
10, 0.015014104545116425
11, 0.01262169610708952
12, 0.011441747657954693
13, 0.01087689958512783
14, 0.010552667081356049
15, 0.010260318405926228
16, 0.00989515706896782
17, 0.009426126256585121
18, 0.008862982504069805
19, 0.008233729749917984
20, 0.007573097478598356
21, 0.006914529949426651
22, 0.0062889279797673225
23, 0.0057236505672335625
24, 0.005233231466263533
25, 0.004821700043976307
26, 0.0044875964522361755
27, 0.004221213050186634
28, 0.0040107062086462975
29, 0.0038409875705838203
30, 0.0036966586485505104
31, 0.003565149148926139
32, 0.0034353178925812244
33, 0.0033003841526806355
34, 0.0031568645499646664
35, 0.0030039772391319275
36, 0.0028433853294700384
37, 0.0026781277265399694
38, 0.0025122174993157387
39, 0.0023499878589063883
40, 0.002195233479142189
41, 0.002051174407824874
42, 0.0019199036760255694
43, 0.0018023265292868018
44, 0.0016984821995720267
45, 0.0016074459999799728
46, 0.0015276542399078608
47, 0.0014571150531992316
48, 0.0013937525218352675
49, 0.0013357948046177626
50, 0.001281573437154293
51, 0.0012301707174628973
52, 0.0011809602146968246
53, 0.0011338734766468406
54, 0.0010887831449508667
55, 0.0010459859622642398
56, 0.0010056814644485712
57, 0.0009681421215645969
58, 0.0009333269554190338
59, 0.0009010654757730663
60, 0.0008710706606507301
61, 0.0008431350579485297
62, 0.0008168704225681722
63, 0.0007919666240923107
64, 0.0007682214491069317
65, 0.0007454226724803448
66, 0.0007234892691485584
67, 0.0007023968501016498
68, 0.0006822769064456224
69, 0.0006631698925048113
70, 0.0006451924564316869
71, 0.0006283462862484157
72, 0.0006126598455011845
73, 0.0005980675923638046
74, 0.0005844954866915941
75, 0.000571858137845993
76, 0.0005600256845355034
77, 0.0005488723982125521
78, 0.0005382997333072126
79, 0.0005282445345073938
80, 0.0005186368944123387
81, 0.0005094306543469429
82, 0.0005006119608879089
83, 0.0004921624204143882
84, 0.000484103977214545
85, 0.00047640124103054404
86, 0.00046904938062652946
87, 0.0004620164108928293
88, 0.00045528574264608324
89, 0.0004488513804972172
90, 0.000442681455751881
91, 0.00043674802873283625
92, 0.00043104583164677024
93, 0.00042555673280730844
94, 0.0004202645504847169
95, 0.0004151442553848028
96, 0.00041019180207513273
97, 0.0004053876909893006
98, 0.00040074315620586276
99, 0.00039620883762836456
100, 0.00039183179615065455
101, 0.00038757792208343744
102, 0.0003834253584500402
103, 0.0003794128424488008
104, 0.0003755182842724025
105, 0.0003717395884450525
106, 0.00036808609729632735
107, 0.0003645377582870424
108, 0.00036107710911892354
109, 0.00035771410330198705
110, 0.0003544190840329975
111, 0.0003512019757181406
112, 0.00034805326140485704
113, 0.00034497733577154577
114, 0.0003419801942072809
115, 0.000339042249834165
116, 0.0003361742419656366
117, 0.00033338554203510284
118, 0.00033063790760934353
119, 0.00032797263702377677
120, 0.0003253552131354809
121, 0.00032278778962790966
122, 0.00032027438282966614
123, 0.000317817903123796
124, 0.0003154031001031399
125, 0.00031304010190069675
126, 0.00031071790726855397
127, 0.000308438902720809
128, 0.00030621030600741506
129, 0.0003040035371668637
130, 0.0003018511342816055
131, 0.0002997450064867735
132, 0.0002976795076392591
133, 0.00029564747819676995
134, 0.0002936644887086004
135, 0.0002917007077485323
136, 0.0002897848025895655
137, 0.00028790230862796307
138, 0.0002860481617972255
139, 0.0002842287940438837
140, 0.0002824281982611865
141, 0.00028067638049833477
142, 0.00027894950471818447
143, 0.00027725493418984115
144, 0.0002755906607490033
145, 0.00027395333745516837
146, 0.0002723303041420877
147, 0.0002707605599425733
148, 0.00026919523952528834
149, 0.00026766950031742454
150, 0.00026615819660946727
151, 0.0002646790526341647
152, 0.00026321763289161026
153, 0.0002617900900077075
154, 0.00026038422947749496
155, 0.0002590005751699209
156, 0.0002576448896434158
157, 0.00025630384334363043
158, 0.0002549863129388541
159, 0.0002536846441216767
160, 0.00025241111870855093
161, 0.0002511520578991622
162, 0.00024991133250296116
163, 0.0002486852463334799
164, 0.0002474684442859143
165, 0.0002462865086272359
166, 0.00024511927040293813
167, 0.00024395514628849924
168, 0.00024281324294861406
169, 0.00024168132222257555
170, 0.00024056788242887706
171, 0.0002394655457464978
172, 0.00023837978369556367
173, 0.0002373080642428249
174, 0.00023625294852536172
175, 0.00023520363902207464
176, 0.00023417591000907123
177, 0.000233151760767214
178, 0.00023214903194457293
179, 0.00023115059593692422
180, 0.00023015859187580645
181, 0.0002292006101924926
182, 0.00022822979371994734
183, 0.00022727092436980456
184, 0.00022632797481492162
185, 0.00022538850316777825
186, 0.00022445802460424602
187, 0.0002235383726656437
188, 0.00022262467246036977
189, 0.00022172299213707447
190, 0.000220833026105538
191, 0.00021997117437422276
192, 0.00021911237854510546
193, 0.00021827162709087133
194, 0.00021742843091487885
195, 0.000216618092963472
196, 0.00021580605243798345
197, 0.00021501444280147552
198, 0.00021421595010906458
199, 0.00021343899425119162
200, 0.00021266908152028918
201, 0.00021190922416280955
202, 0.00021116365678608418
203, 0.00021042877051513642
204, 0.00020970833429601043
205, 0.0002089885965688154
206, 0.00020829710410907865
207, 0.00020760219194926322
208, 0.00020692926773335785
209, 0.0002062672865577042
210, 0.00020560510165523738
211, 0.00020495339413173497
212, 0.0002043152053374797
213, 0.00020368123659864068
214, 0.00020306554506532848
215, 0.0002024519199039787
216, 0.00020185552421025932
217, 0.00020125664013903588
218, 0.00020066653087269515
219, 0.00020009692525491118
220, 0.00019952577713411301
221, 0.00019897246966138482
222, 0.0001984182745218277
223, 0.00019787557539530098
224, 0.00019733984663616866
225, 0.00019680874538607895
226, 0.0001962925016414374
227, 0.00019577836792450398
228, 0.00019527709810063243
229, 0.00019478800822980702
230, 0.00019428289670031518
231, 0.00019380694720894098
232, 0.00019332852389197797
233, 0.0001928613055497408
234, 0.00019239820539951324
235, 0.00019193626940250397
236, 0.0001914899912662804
237, 0.0001910461432999
238, 0.00019061588682234287
239, 0.00019017976592294872
240, 0.00018976093269884586
241, 0.00018934565014205873
242, 0.000188935300684534
243, 0.00018852035282179713
244, 0.0001881229691207409
245, 0.00018772677867673337
246, 0.00018734927289187908
247, 0.0001869661355158314
248, 0.00018658488988876343
249, 0.0001862192148109898
250, 0.0001858509349403903
251, 0.00018548352818470448
252, 0.00018513668328523636
253, 0.00018478487618267536
254, 0.0001844411890488118
255, 0.00018410230404697359
256, 0.00018377183005213737
257, 0.00018344591080676764
258, 0.00018311703752260655
259, 0.00018280657241120934
260, 0.00018248765263706446
261, 0.00018218287732452154
262, 0.00018188368994742632
263, 0.0001815862488001585
264, 0.00018128694500774145
265, 0.00018100018496625125
266, 0.0001807211374398321
267, 0.00018043936870526522
268, 0.0001801596226869151
269, 0.00017988673062063754
270, 0.00017962363199330866
271, 0.00017936210497282445
272, 0.00017910396854858845
273, 0.00017884591943584383
274, 0.00017860128718893975
275, 0.0001783505140338093
276, 0.00017811020370572805
277, 0.00017786699754651636
278, 0.00017762646893970668
279, 0.00017740161274559796
280, 0.00017717198352329433
281, 0.00017694545385893434
282, 0.00017672765534371138
283, 0.00017652037786319852
284, 0.0001763016334734857
285, 0.0001760937157087028
286, 0.0001758905127644539
287, 0.0001756836281856522
288, 0.00017548410687595606
289, 0.00017529922479297966
290, 0.00017510468023829162
291, 0.00017491623293608427
292, 0.00017473373736720532
293, 0.00017455790657550097
294, 0.00017437599308323115
295, 0.00017420476069673896
296, 0.00017403109814040363
297, 0.00017386669060215354
298, 0.00017369771376252174
299, 0.00017354408919345587
300, 0.00017338391626253724
301, 0.00017322623170912266
302, 0.00017307121015619487
303, 0.00017292183474637568
304, 0.00017277098959311843
305, 0.00017263132031075656
306, 0.0001724961621221155
307, 0.00017235548875760287
308, 0.00017221549933310598
309, 0.00017208517238032073
310, 0.00017195972031913698
311, 0.0001718322600936517
312, 0.00017170945648103952
313, 0.0001715916150715202
314, 0.00017146601749118418
315, 0.00017135124653577805
316, 0.0001712379016680643
317, 0.00017112829664256424
318, 0.00017102481797337532
319, 0.00017091468907892704
320, 0.00017081490659620613
321, 0.0001707139308564365
322, 0.00017060968093574047
323, 0.00017051635950338095
324, 0.00017042741819750518
325, 0.00017033636686392128
326, 0.0001702436711639166
327, 0.00017015679623000324
328, 0.00017007411224767566
329, 0.00016998924547806382
330, 0.00016990493168123066
331, 0.00016983060049824417
332, 0.0001697590050753206
333, 0.00016968455747701228
334, 0.00016960616630967706
335, 0.00016954002785496414
336, 0.00016947467520367354
337, 0.00016940977366175503
338, 0.00016934744780883193
339, 0.00016928583499975502
340, 0.00016922676877584308
341, 0.00016916132881306112
342, 0.00016910253907553852
343, 0.00016904540825635195
344, 0.00016899651382118464
345, 0.00016894649888854474
346, 0.00016889884136617184
347, 0.00016885271179489791
348, 0.0001688007905613631
349, 0.00016875611618161201
350, 0.0001687163021415472
351, 0.0001686804462224245
352, 0.00016863869677763432
353, 0.00016860489267855883
354, 0.00016856566071510315
355, 0.00016853019769769162
356, 0.00016849953681230545
357, 0.00016846798826009035
358, 0.00016843702178448439
359, 0.00016840377065818757
360, 0.00016837683506309986
361, 0.00016835093265399337
362, 0.0001683236623648554
363, 0.000168301907251589
364, 0.00016827939543873072
365, 0.000168255326570943
366, 0.0001682352158240974
367, 0.0001682175206951797
368, 0.00016819749725982547
369, 0.00016818044241517782
370, 0.00016816180141177028
371, 0.00016814851551316679
372, 0.00016813640831969678
373, 0.00016812412650324404
374, 0.00016810931265354156
375, 0.00016809636144898832
376, 0.0001680892746662721
377, 0.00016807607607915998
378, 0.00016806954226922244
379, 0.00016806158237159252
380, 0.00016805487393867224
381, 0.0001680450513958931
382, 0.0001680461864452809
383, 0.0001680365385254845
384, 0.00016803588368929923
385, 0.00016802594473119825
386, 0.00016802651225589216
387, 0.00016801859601400793
388, 0.0001680202258285135
389, 0.00016801599122118205
390, 0.00016801383753772825
391, 0.00016800953017082065
392, 0.00016801213496364653
393, 0.00016801254241727293
394, 0.00016801022866275162
395, 0.00016801226593088359
396, 0.0001680093555478379
397, 0.00016800912271719426
398, 0.00016801184392534196
399, 0.0001680091954767704
0 2.5696330070495605 0.05 7.866482734680176
1 2.410778045654297 0.05 6.923933029174805
2 2.243709087371826 0.05 5.997517108917236
3 2.0393850803375244 0.05 4.954922676086426
4 1.765659213066101 0.05 3.714087724685669
5 1.363957405090332 0.05 2.2163589000701904
6 0.9260482788085938 0.05 1.0216584205627441
7 0.6311511993408203 0.05 0.474575400352478
8 0.5145857930183411 0.05 0.3154670000076294
9 0.428107887506485 0.05 0.21834582090377808
10 0.36378639936447144 0.05 0.15766355395317078
11 0.3163129389286041 0.05 0.11919893324375153
12 0.27879494428634644 0.05 0.09259940683841705
13 0.24866388738155365 0.05 0.07366545498371124
14 0.22458788752555847 0.05 0.06009122356772423
15 0.20540402829647064 0.05 0.050263911485672
16 0.18994027376174927 0.05 0.042980603873729706
17 0.1772156059741974 0.05 0.037414707243442535
18 0.1664854884147644 0.05 0.033021073788404465
19 0.15724927186965942 0.05 0.029458845034241676
20 0.14917531609535217 0.05 0.026511378586292267
21 0.14200645685195923 0.05 0.024024518206715584
22 0.13557888567447662 0.05 0.021898912265896797
23 0.12975098192691803 0.05 0.0200567115098238
24 0.12443705648183823 0.05 0.01844751462340355
25 0.11956046521663666 0.05 0.017029957845807076
26 0.11507324874401093 0.05 0.0157756470143795
27 0.11091367900371552 0.05 0.014655768871307373
28 0.10704944282770157 0.05 0.013652343302965164
29 0.10344237834215164 0.05 0.012747803702950478
30 0.10007210075855255 0.05 0.011930659413337708
31 0.09691379964351654 0.05 0.011189471930265427
32 0.09394745528697968 0.05 0.010514981113374233
33 0.09113776683807373 0.05 0.009895440191030502
34 0.08848107606172562 0.05 0.009326940402388573
35 0.08597971498966217 0.05 0.008807050064206123
36 0.08358441293239594 0.05 0.00832317490130663
37 0.08131064474582672 0.05 0.007876498624682426
38 0.07914423942565918 0.05 0.007462373934686184
39 0.07707387953996658 0.05 0.007077058777213097
40 0.07507991045713425 0.05 0.0067156171426177025
41 0.07318983972072601 0.05 0.006381753832101822
42 0.0713590756058693 0.05 0.006066480651497841
43 0.06960826367139816 0.05 0.0057724472135305405
44 0.06792465597391129 0.05 0.005496588535606861
45 0.06629876047372818 0.05 0.00523659773170948
46 0.06473340094089508 0.05 0.004992237314581871
47 0.06322743743658066 0.05 0.004762659780681133
48 0.06177473068237305 0.05 0.004546321462839842
49 0.06036311015486717 0.05 0.004340918269008398
50 0.05900747328996658 0.05 0.0041481307707726955
51 0.05770805478096008 0.05 0.003967448603361845
52 0.056428179144859314 0.05 0.003793416079133749
53 0.055197540670633316 0.05 0.0036297591868788004
54 0.05400405451655388 0.05 0.0034744904842227697
55 0.05285041406750679 0.05 0.003327631391584873
56 0.051734860986471176 0.05 0.0031886359211057425
57 0.05064154043793678 0.05 0.0030552884563803673
58 0.04959474131464958 0.05 0.0029302837792783976
59 0.04857223108410835 0.05 0.0028107003308832645
60 0.047578129917383194 0.05 0.00269682751968503
61 0.046624116599559784 0.05 0.0025897608138620853
62 0.045676570385694504 0.05 0.002485566306859255
63 0.04477068781852722 0.05 0.0023879539221525192
64 0.04388369619846344 0.05 0.0022942714858800173
65 0.04302237927913666 0.05 0.002205094788223505
66 0.0421912781894207 0.05 0.0021207218524068594
67 0.04136952385306358 0.05 0.002038916340097785
68 0.04058319330215454 0.05 0.0019621439278125763
69 0.039817024022340775 0.05 0.0018887566402554512
70 0.03905411437153816 0.05 0.0018170714611187577
71 0.03833400458097458 0.05 0.0017506800359115005
72 0.037615593522787094 0.05 0.001685676397755742
73 0.03692511469125748 0.05 0.0016243591671809554
74 0.03625248000025749 0.05 0.0015657192561775446
75 0.035593751817941666 0.05 0.001509336056187749
76 0.034950319677591324 0.05 0.0014552604407072067
77 0.034323494881391525 0.05 0.0014035288477316499
78 0.03372012823820114 0.05 0.0013546179980039597
79 0.03311783820390701 0.05 0.001306659309193492
80 0.032536692917346954 0.05 0.001261203782632947
81 0.031968314200639725 0.05 0.0012175248702988029
82 0.031417522579431534 0.05 0.0011759322369471192
83 0.030878065153956413 0.05 0.00113589596003294
84 0.030344661325216293 0.05 0.001096990774385631
85 0.029833555221557617 0.05 0.0010603481205180287
86 0.02933088317513466 0.05 0.0010249170009046793
87 0.028833521530032158 0.05 0.0009904528269544244
88 0.028357289731502533 0.05 0.0009580051410011947
89 0.027888121083378792 0.05 0.0009265672415494919
90 0.02742895297706127 0.05 0.0008963071741163731
91 0.026979094371199608 0.05 0.0008671478717587888
92 0.026544731110334396 0.05 0.0008394505130127072
93 0.026114216074347496 0.05 0.0008124420419335365
94 0.025691628456115723 0.05 0.0007863604696467519
95 0.025281872600317 0.05 0.0007614771602675319
96 0.024882126599550247 0.05 0.0007375871064141393
97 0.024488607421517372 0.05 0.0007144414121285081
98 0.024104556068778038 0.05 0.0006922080647200346
99 0.023726211860775948 0.05 0.0006706489366479218
tuning, 0, 0.00020855518232565373
tuning, 1, 0.00020855518232565373
tuning, 2, 0.00020686641801148653
tuning, 3, 0.00020401568326633424
tuning, 4, 0.00020042163669131696
tuning, 5, 0.00019630695169325918
tuning, 6, 0.00019187602447345853
tuning, 7, 0.00018706747505348176
tuning, 8, 0.00018238736083731055
tuning, 9, 0.00017776654567569494
tuning, 10, 0.0001733239332679659
tuning, 11, 0.0001693431695457548
tuning, 12, 0.00016587201389484107
tuning, 13, 0.0001625248696655035
tuning, 14, 0.0001597480004420504
tuning, 15, 0.00015674589667469263
tuning, 16, 0.0001540245139040053
tuning, 17, 0.00015128328232094646
tuning, 18, 0.00014881142124067992
tuning, 19, 0.00014656895655207336
tuning, 20, 0.0001444420631742105
tuning, 21, 0.00014227200881578028
tuning, 22, 0.00014018925139680505
tuning, 23, 0.00013813588884659111
tuning, 24, 0.00013603757543023676
tuning, 25, 0.00013411682448349893
tuning, 26, 0.0001321367162745446
tuning, 27, 0.00013041208148933947
tuning, 28, 0.00012885607429780066
tuning, 29, 0.00012712765601463616
tuning, 30, 0.00012539185991045088
tuning, 31, 0.00012380813132040203
tuning, 32, 0.00012224876263644546
tuning, 33, 0.00012074176629539579
tuning, 34, 0.00011914920469280332
tuning, 35, 0.0001175909856101498
tuning, 36, 0.00011614193499553949
tuning, 37, 0.00011493195779621601
tuning, 38, 0.00011332527355989441
tuning, 39, 0.00011192898091394454
tuning, 40, 0.00011070994514739141
tuning, 41, 0.00010996377386618406
tuning, 42, 0.0001094549079425633
tuning, 43, 0.00010914305312326178
tuning, 44, 0.00010900238703470677
tuning, 45, 0.00010734428360592574
tuning, 46, 0.00010481298522790894
tuning, 47, 0.00010209491301793605
tuning, 48, 0.00010056157771032304
tuning, 49, 0.00010044057853519917
tuning, 50, 0.00010000105248764157
tuning, 51, 9.916972339851782e-05
tuning, 52, 9.690520528238267e-05
tuning, 53, 9.484608744969591e-05
tuning, 54, 9.38151206355542e-05
tuning, 55, 9.367675374960527e-05
tuning, 56, 9.265019616577774e-05
tuning, 57, 9.127615339821205e-05
tuning, 58, 8.999882265925407e-05
tuning, 59, 8.844608964864165e-05
tuning, 60, 8.731537673156708e-05
tuning, 61, 8.677205187268555e-05
tuning, 62, 8.622078894404694e-05
tuning, 63, 8.55575199238956e-05
tuning, 64, 8.473957132082433e-05
tuning, 65, 8.320911729242653e-05
tuning, 66, 8.096860983641818e-05
tuning, 67, 8.025844726944342e-05
tuning, 68, 8.017908112378791e-05
tuning, 69, 7.94112856965512e-05
tuning, 70, 7.801278115948662e-05
tuning, 71, 7.715375977568328e-05
tuning, 72, 7.605255086673424e-05
tuning, 73, 7.489365816581994e-05
tuning, 74, 7.374446431640536e-05
tuning, 75, 7.258701225509867e-05
tuning, 76, 7.171089964685962e-05
tuning, 77, 7.052827277220786e-05
tuning, 78, 6.924526678631082e-05
tuning, 79, 6.832230428699404e-05
tuning, 80, 6.768214370822534e-05
tuning, 81, 6.657157791778445e-05
tuning, 82, 6.54894975014031e-05
tuning, 83, 6.468116771429777e-05
tuning, 84, 6.426147592719644e-05
tuning, 85, 6.362018757499754e-05
tuning, 86, 6.29120331723243e-05
tuning, 87, 6.267680146265775e-05
tuning, 88, 6.43870371277444e-05
tuning, 89, 6.869171920698136e-05
tuning, 90, 7.725817704340443e-05
tuning, 91, 7.826964429114014e-05
tuning, 92, 6.882009620312601e-05
tuning, 93, 5.956165841780603e-05
tuning, 94, 6.192758155521005e-05
tuning, 95, 6.987740198383108e-05
tuning, 96, 6.403985025826842e-05
tuning, 97, 5.42581474292092e-05
tuning, 98, 5.969343692413531e-05
tuning, 99, 6.362212297972292e-05
tuning, 100, 5.305872764438391e-05
tuning, 101, 5.348143895389512e-05
tuning, 102, 6.0587713960558176e-05
tuning, 103, 5.268400127533823e-05
tuning, 104, 4.967066342942417e-05
tuning, 105, 5.627207428915426e-05
tuning, 106, 5.0380214815959334e-05
tuning, 107, 4.7783592890482396e-05
tuning, 108, 5.22383998031728e-05
tuning, 109, 4.715442628366873e-05
tuning, 110, 4.623835411621258e-05
tuning, 111, 4.655915836337954e-05
tuning, 112, 4.423926293384284e-05
tuning, 113, 4.4048218114767224e-05
