
  0%|                                                                                                                                                                                                                                                                                            | 0/10 [00:00<?, ?it/s]
0, 0.1364392638206482
1, 0.1364392638206482
2, 0.12979231774806976
3, 0.11694791167974472
4, 0.09893609583377838
5, 0.07756032794713974
6, 0.05549606680870056
7, 0.03876930847764015
8, 0.027032822370529175
9, 0.01946832612156868
10, 0.01501348614692688
11, 0.01262127235531807
12, 0.011441614478826523
13, 0.010877104476094246
14, 0.01055329293012619
15, 0.01026123482733965
16, 0.009896555915474892
17, 0.009427530691027641
18, 0.008864352479577065
19, 0.008234946988523006
20, 0.007574070245027542
21, 0.006915101781487465
22, 0.006289712619036436
23, 0.005724584683775902
24, 0.00523413997143507
25, 0.004822985269129276
26, 0.004488810896873474
27, 0.0042233653366565704
28, 0.004013558849692345
29, 0.0038443366065621376
30, 0.0037005534395575523
31, 0.0035691745579242706
32, 0.003439350053668022
33, 0.0033044028095901012
34, 0.00316057400777936
35, 0.003007144434377551
36, 0.002845861716195941
37, 0.002679965225979686
38, 0.002513553248718381
39, 0.0023508090525865555
40, 0.0021956306882202625
41, 0.002051230287179351
42, 0.0019197989022359252
43, 0.0018022394506260753
44, 0.0016985135152935982
45, 0.0016075929161161184
46, 0.0015279627405107021
47, 0.0014575847890228033
48, 0.0013943513622507453
49, 0.0013363936450332403
50, 0.0012820682022720575
51, 0.0012305575655773282
52, 0.001181181170977652
53, 0.001133809331804514
54, 0.001088540768250823
55, 0.0010456128511577845
56, 0.001005216734483838
57, 0.0009675277397036552
58, 0.0009326398721896112
59, 0.0009002723963931203
60, 0.0008702793857082725
61, 0.0008422279497608542
62, 0.0008158322889357805
63, 0.0007908018305897713
64, 0.000766865152399987
65, 0.0007438543252646923
66, 0.0007216915255412459
67, 0.0007004314102232456
68, 0.0006801385316066444
69, 0.0006608976982533932
70, 0.0006428359192796052
71, 0.0006259457441046834
72, 0.000610235205385834
73, 0.0005956406239420176
74, 0.0005820841761305928
75, 0.0005694299470633268
76, 0.0005575676332227886
77, 0.0005463980487547815
78, 0.0005357834743335843
79, 0.0005256761214695871
80, 0.0005160095170140266
81, 0.0005067299935035408
82, 0.00049784523434937
83, 0.0004893481964245439
84, 0.00048123853048309684
85, 0.0004734841641038656
86, 0.00046607700642198324
87, 0.0004590169992297888
88, 0.00045224116183817387
89, 0.0004457490867935121
90, 0.0004395308787934482
91, 0.0004335672128945589
92, 0.0004278193227946758
93, 0.0004222852876409888
94, 0.0004169296007603407
95, 0.0004117580538149923
96, 0.0004067406989634037
97, 0.00040187034755945206
98, 0.0003971473197452724
99, 0.00039256419404409826
100, 0.0003880997537635267
101, 0.000383768550818786
102, 0.00037957861786708236
103, 0.0003755119105335325
104, 0.00037157043698243797
105, 0.00036774782347492874
106, 0.0003640389768406749
107, 0.00036043499130755663
108, 0.00035691692028194666
109, 0.00035346797085367143
110, 0.0003501072933431715
111, 0.0003468297072686255
112, 0.0003436144907027483
113, 0.0003404739545658231
114, 0.0003373923245817423
115, 0.0003344098513480276
116, 0.00033147245994769037
117, 0.00032860704232007265
118, 0.0003258087090216577
119, 0.00032306875800713897
120, 0.00032038387143984437
121, 0.000317753991112113
122, 0.0003151654964312911
123, 0.0003126314841210842
124, 0.0003101474139839411
125, 0.0003077032743021846
126, 0.0003053156833630055
127, 0.0003029603394679725
128, 0.0003006562765222043
129, 0.0002983926679007709
130, 0.00029617949621751904
131, 0.0002940029662568122
132, 0.0002918800455518067
133, 0.00028978456975892186
134, 0.0002877222723327577
135, 0.0002856965293176472
136, 0.00028370501240715384
137, 0.0002817375061567873
138, 0.0002798277128022164
139, 0.0002779348287731409
140, 0.0002760826610028744
141, 0.0002742596552707255
142, 0.00027245760429650545
143, 0.00027069708448834717
144, 0.00026895746123045683
145, 0.00026724778581410646
146, 0.0002655744319781661
147, 0.0002639216836541891
148, 0.0002623102627694607
149, 0.0002607137430459261
150, 0.0002591387601569295
151, 0.00025758828269317746
152, 0.0002560737484600395
153, 0.00025457836454734206
154, 0.00025310582714155316
155, 0.00025164539692923427
156, 0.000250217184657231
157, 0.0002488121099304408
158, 0.0002474223729223013
159, 0.00024605527869425714
160, 0.0002447029110044241
161, 0.00024335409398190677
162, 0.00024203478824347258
163, 0.00024072729866020381
164, 0.00023942677944432944
165, 0.00023815332679077983
166, 0.00023690034868195653
167, 0.0002356412442168221
168, 0.00023440485529135913
169, 0.0002331872092327103
170, 0.00023196928668767214
171, 0.00023077467631082982
172, 0.00022957788314670324
173, 0.00022841233294457197
174, 0.00022724753944203258
175, 0.00022608888684771955
176, 0.00022494111908599734
177, 0.00022380065638571978
178, 0.00022267129679676145
179, 0.0002215439162682742
180, 0.00022043715580366552
181, 0.00021934804681222886
182, 0.00021827832097187638
183, 0.00021722004748880863
184, 0.00021617514721583575
185, 0.00021514634136110544
186, 0.00021413038484752178
187, 0.00021312490571290255
188, 0.00021213595755398273
189, 0.00021114887204021215
190, 0.00021017393737565726
191, 0.0002092185168294236
192, 0.00020827585831284523
193, 0.00020734644203912467
194, 0.00020643876632675529
195, 0.00020553199283313006
196, 0.00020465062698349357
197, 0.00020376942120492458
198, 0.00020291373948566616
199, 0.00020205839246045798
200, 0.00020121326087974012
201, 0.00020038796355947852
202, 0.00019956738105975091
203, 0.00019875580619554967
204, 0.0001979586377274245
205, 0.00019717542454600334
206, 0.0001963974063983187
207, 0.00019563009846024215
208, 0.00019487259851302952
209, 0.00019412781693972647
210, 0.00019338304991833866
211, 0.00019265894661657512
212, 0.0001919434143928811
213, 0.00019123560923617333
214, 0.00019053040887229145
215, 0.00018983756308443844
216, 0.00018915487453341484
217, 0.00018847687169909477
218, 0.0001878144103102386
219, 0.00018715309852268547
220, 0.00018650200217962265
221, 0.0001858617179095745
222, 0.0001852191926445812
223, 0.00018460513092577457
224, 0.00018397942767478526
225, 0.00018337543588131666
226, 0.00018277420895174146
227, 0.0001821833138819784
228, 0.000181597686605528
229, 0.00018101894238498062
230, 0.00018044651369564235
231, 0.00017988552281167358
232, 0.0001793331903172657
233, 0.00017878632934298366
234, 0.0001782389881554991
235, 0.00017770437989383936
236, 0.00017717358423396945
237, 0.00017664500046521425
238, 0.00017612797091715038
239, 0.0001756089914124459
240, 0.0001751062081893906
241, 0.00017460223170928657
242, 0.0001741081796353683
243, 0.00017362210201099515
244, 0.0001731309457682073
245, 0.00017266024951823056
246, 0.00017218789434991777
247, 0.00017171537911053747
248, 0.00017125571321230382
249, 0.00017079486860893667
250, 0.0001703384332358837
251, 0.00016989521100185812
252, 0.00016945395327638835
253, 0.00016901289927773178
254, 0.00016857992159202695
255, 0.00016814911214169115
256, 0.00016772793605923653
257, 0.00016730677452869713
258, 0.00016689339827280492
259, 0.00016646910808049142
260, 0.0001660707639530301
261, 0.00016566502745263278
262, 0.0001652690552873537
263, 0.0001648676989134401
264, 0.00016447939560748637
265, 0.0001641008711885661
266, 0.00016371390665881336
267, 0.000163335440447554
268, 0.00016296160174533725
269, 0.0001625871518626809
270, 0.00016222520207520574
271, 0.00016186063294298947
272, 0.00016149759176187217
273, 0.00016113354649860412
274, 0.00016078897169791162
275, 0.00016043409414123744
276, 0.00016008933016564697
277, 0.00015974996495060623
278, 0.00015940956654958427
279, 0.00015906960470601916
280, 0.00015873867960181087
281, 0.00015841700951568782
282, 0.0001580836105858907
283, 0.00015776572399772704
284, 0.00015744111442472786
285, 0.0001571269240230322
286, 0.00015681001241318882
287, 0.00015650162822566926
288, 0.0001561936514917761
289, 0.00015588701353408396
290, 0.00015558835002593696
291, 0.00015528789663221687
292, 0.00015498854918405414
293, 0.0001546888379380107
294, 0.00015439646085724235
295, 0.000154105422552675
296, 0.00015381751290988177
297, 0.00015353465278167278
298, 0.00015324930427595973
299, 0.0001529662258690223
300, 0.00015268599963746965
301, 0.00015241128858178854
302, 0.00015213705773930997
303, 0.000151861400809139
304, 0.00015159224858507514
305, 0.00015132484259083867
306, 0.00015105181955732405
307, 0.0001507858105469495
308, 0.00015052035450935364
309, 0.0001502626109868288
310, 0.0001499909267295152
311, 0.00014973536599427462
312, 0.00014947159797884524
313, 0.00014921557158231735
314, 0.00014895523781888187
315, 0.00014869749429635704
316, 0.0001484428794356063
317, 0.00014818174531683326
318, 0.00014793002628721297
319, 0.00014767445100005716
320, 0.0001474127930123359
321, 0.0001471565046813339
322, 0.0001469060080125928
323, 0.0001466527464799583
324, 0.00014639380970038474
325, 0.00014614762039855123
326, 0.00014590493810828775
327, 0.0001456580066587776
328, 0.00014541400014422834
329, 0.00014516798546537757
330, 0.00014492793707177043
331, 0.0001446974347345531
332, 0.00014445876877289265
333, 0.00014422446838580072
334, 0.00014398829080164433
335, 0.00014375770115293562
336, 0.0001435262820450589
337, 0.0001433039433322847
338, 0.00014307894161902368
339, 0.00014286136138252914
340, 0.00014264002675190568
341, 0.0001424241199856624
342, 0.00014221789024304599
343, 0.00014201467274688184
344, 0.00014180583821143955
345, 0.00014160647697281092
346, 0.00014141018618829548
347, 0.00014121057756710798
348, 0.0001410228869644925
349, 0.0001408360549248755
350, 0.00014065716823097318
351, 0.00014047618606127799
352, 0.00014030376041773707
353, 0.0001401348563376814
354, 0.00013996314373798668
355, 0.00013979384675621986
356, 0.00013963742821943015
357, 0.00013947524712421
358, 0.0001393080165144056
359, 0.00013915807357989252
360, 0.00013900785415899009
361, 0.00013885844964534044
362, 0.00013871108239982277
363, 0.00013857375597581267
364, 0.00013842075713910162
365, 0.00013827616930939257
366, 0.00013814067642670125
367, 0.0001380138855893165
368, 0.0001378789747832343
369, 0.00013774783292319626
370, 0.00013761692389380187
371, 0.00013748565106652677
372, 0.00013736292021349072
373, 0.00013724013115279377
374, 0.00013711162318941206
375, 0.00013699691044166684
376, 0.00013687970931641757
377, 0.00013676815433427691
378, 0.00013665048754774034
379, 0.0001365413045277819
380, 0.00013643460988532752
381, 0.00013632813352160156
382, 0.00013621784455608577
383, 0.000136110233142972
384, 0.00013600467354990542
385, 0.00013590173330157995
386, 0.0001358121371595189
387, 0.00013571587624028325
388, 0.0001356253051199019
389, 0.00013552303425967693
390, 0.0001354366831947118
391, 0.00013534062600228935
392, 0.00013525455142371356
393, 0.00013516590115614235
394, 0.00013508542906492949
395, 0.0001350047386949882
396, 0.00013491217396222055
397, 0.00013483120710588992
398, 0.00013474741717800498
399, 0.00013467470125760883
400, 0.00013460408081300557
401, 0.00013452462735585868
402, 0.00013444718206301332
403, 0.0001343783806078136
404, 0.00013430684339255095
405, 0.00013423501513898373
406, 0.0001341687748208642
407, 0.0001341021852567792
408, 0.00013403463526628911
409, 0.00013397213479038328
410, 0.0001339126320090145
411, 0.00013385206693783402
412, 0.00013379246229305863
413, 0.00013372930698096752
414, 0.00013367590145207942
415, 0.00013361984747461975
416, 0.0001335673005087301
417, 0.00013351264351513237
418, 0.00013346262858249247
419, 0.00013341387966647744
420, 0.00013336268602870405
421, 0.00013331061927601695
422, 0.00013326805492397398
423, 0.0001332225656369701
424, 0.00013317701814230531
425, 0.00013312639202922583
426, 0.00013308839697856456
427, 0.00013304490130394697
428, 0.0001330057275481522
429, 0.0001329643710050732
430, 0.00013292474613990635
431, 0.0001328923972323537
432, 0.00013285299064591527
433, 0.00013282008876558393
434, 0.00013278584810905159
435, 0.00013275080709718168
436, 0.0001327172212768346
437, 0.0001326893689110875
438, 0.00013265918823890388
439, 0.0001326300553046167
440, 0.0001326025085290894
441, 0.00013257264799904078
442, 0.00013254914665594697
443, 0.000132521876366809
444, 0.00013249885523691773
445, 0.00013247148308437318
446, 0.00013244699221104383
447, 0.00013242305431049317
448, 0.00013239920372143388
449, 0.00013237714301794767
450, 0.00013235658116173
451, 0.00013233933714218438
452, 0.00013232110359240323
453, 0.0001323035394307226
454, 0.00013228766329120845
455, 0.00013227046292740852
456, 0.00013225209841039032
457, 0.00013223540736362338
458, 0.0001322208991041407
459, 0.0001322079770034179
460, 0.00013219731044955552
461, 0.00013218310778029263
462, 0.00013217132072895765
463, 0.00013216142542660236
464, 0.00013214816863182932
465, 0.00013214469072408974
466, 0.00013212949852459133
467, 0.0001321203599218279
468, 0.00013211165787652135
469, 0.00013210135512053967
470, 0.00013209544704295695
471, 0.00013208534801378846
472, 0.00013208015298005193
473, 0.00013207845040597022
474, 0.0001320650044362992
475, 0.00013206472794990987
476, 0.00013205768482293934
477, 0.00013205481809563935
478, 0.00013204754213802516
479, 0.00013204265269450843
480, 0.00013204061542637646
481, 0.00013203491107560694
482, 0.00013203192793298513
483, 0.00013203319394961
484, 0.0001320300216320902
485, 0.00013202415721025318
486, 0.00013202404079493135
487, 0.0001320209848927334
488, 0.000132020068122074
489, 0.00013201659021433443
490, 0.00013201884576119483
491, 0.00013201699766796082
492, 0.0001320139126619324
493, 0.000132017710711807
494, 0.0001320183655479923
495, 0.0001320148876402527
496, 0.00013201455294620246
497, 0.00013201408728491515
498, 0.00013201373803894967
499, 0.00013201251567807049
0 2.623610496520996 0.05 7.88127326965332
1 2.462676525115967 0.05 6.944043159484863
2 2.2939131259918213 0.05 6.024924278259277
3 2.0936808586120605 0.05 5.019016265869141
4 1.824299693107605 0.05 3.8105709552764893
5 1.4279015064239502 0.05 2.3345017433166504
6 0.9878680109977722 0.05 1.1173663139343262
7 0.6630539894104004 0.05 0.5033794641494751
8 0.5336229801177979 0.05 0.32603690028190613
9 0.4436017870903015 0.05 0.22531196475028992
10 0.3746796250343323 0.05 0.16073773801326752
11 0.32499629259109497 0.05 0.12093569338321686
12 0.285765677690506 0.05 0.09350132942199707
13 0.2539294958114624 0.05 0.07382850348949432
14 0.2285183221101761 0.05 0.05979154258966446
15 0.2085326462984085 0.05 0.04979041963815689
16 0.19263042509555817 0.05 0.04248616099357605
17 0.17963582277297974 0.05 0.036947377026081085
18 0.16874943673610687 0.05 0.03260485827922821
19 0.1593920886516571 0.05 0.02908916585147381
20 0.15122950077056885 0.05 0.026186097413301468
21 0.14397317171096802 0.05 0.02373345009982586
22 0.13748474419116974 0.05 0.021642467007040977
23 0.1315995752811432 0.05 0.019829269498586655
24 0.12624089419841766 0.05 0.018247265368700027
25 0.1213250532746315 0.05 0.016853833571076393
26 0.11679916083812714 0.05 0.015619860030710697
27 0.11260833591222763 0.05 0.014519069343805313
28 0.10871217399835587 0.05 0.013531753793358803
29 0.1050945594906807 0.05 0.012646145187318325
30 0.10169738531112671 0.05 0.01184178702533245
31 0.09851483255624771 0.05 0.011112221516668797
32 0.09552008658647537 0.05 0.010446891188621521
33 0.09269620478153229 0.05 0.00983833521604538
34 0.09003150463104248 0.05 0.009280827827751637
35 0.087504543364048 0.05 0.008767157793045044
36 0.08510638028383255 0.05 0.008293194696307182
37 0.08281587809324265 0.05 0.007852806709706783
38 0.08064275234937668 0.05 0.007446090690791607
39 0.07856182008981705 0.05 0.007066767662763596
40 0.07657761126756668 0.05 0.00671431003138423
41 0.0746629610657692 0.05 0.006382754072546959
42 0.07284175604581833 0.05 0.006075171288102865
43 0.07109260559082031 0.05 0.00578690692782402
44 0.06938879936933517 0.05 0.0055128526873886585
45 0.0677650049328804 0.05 0.005257855169475079
46 0.06619813293218613 0.05 0.005017519928514957
47 0.06468138843774796 0.05 0.00479023065418005
48 0.06322004646062851 0.05 0.004576224833726883
49 0.06180150806903839 0.05 0.004373164847493172
50 0.0604441836476326 0.05 0.004183182027190924
51 0.05911288782954216 0.05 0.004000939894467592
52 0.05783165991306305 0.05 0.003829384921118617
53 0.05658780783414841 0.05 0.0036664302460849285
54 0.05538493022322655 0.05 0.0035122132394462824
55 0.05421824753284454 0.05 0.003365802578628063
56 0.05310579016804695 0.05 0.003229099791496992
57 0.05199719965457916 0.05 0.003095691092312336
58 0.05091801658272743 0.05 0.00296852458268404
59 0.04989750683307648 0.05 0.0028507253155112267
60 0.04888386279344559 0.05 0.0027360792737454176
61 0.047904547303915024 0.05 0.0026275510899722576
62 0.04695461690425873 0.05 0.0025243775453418493
63 0.04603993892669678 0.05 0.0024269854184240103
64 0.045131418853998184 0.05 0.0023321453481912613
65 0.04427549988031387 0.05 0.0022445260547101498
66 0.04340710863471031 0.05 0.00215734401717782
67 0.042585667222738266 0.05 0.0020764649379998446
68 0.04178221896290779 0.05 0.001998852239921689
69 0.04099693149328232 0.05 0.001924422336742282
70 0.040238525718450546 0.05 0.0018538807053118944
71 0.039484161883592606 0.05 0.0017850217409431934
72 0.03877058997750282 0.05 0.0017210857477039099
73 0.03805694729089737 0.05 0.0016583094839006662
74 0.037369247525930405 0.05 0.0015989188104867935
75 0.03669345751404762 0.05 0.0015416113892570138
76 0.03604434058070183 0.05 0.001487551024183631
77 0.03540526703000069 0.05 0.0014352693688124418
78 0.03478521108627319 0.05 0.0013854377903044224
79 0.034165095537900925 0.05 0.0013364814221858978
80 0.033577702939510345 0.05 0.0012909210054203868
81 0.03299768641591072 0.05 0.0012467076303437352
82 0.03243274241685867 0.05 0.001204384258016944
83 0.03187280520796776 0.05 0.0011631569359451532
84 0.031347520649433136 0.05 0.0011251333635300398
85 0.03081335872411728 0.05 0.0010871156118810177
86 0.030304744839668274 0.05 0.0010515233734622598
87 0.02979603223502636 0.05 0.0010165168205276132
88 0.02930484339594841 0.05 0.000983278383500874
89 0.028829365968704224 0.05 0.0009516294812783599
90 0.028348121792078018 0.05 0.0009201238863170147
91 0.027894947677850723 0.05 0.0008909407188184559
92 0.02744687721133232 0.05 0.0008625485934317112
93 0.02700810693204403 0.05 0.0008351914002560079
94 0.026576347649097443 0.05 0.0008087015012279153
95 0.02616354078054428 0.05 0.0007837738376110792
96 0.025738196447491646 0.05 0.0007584970444440842
97 0.02535110153257847 0.05 0.0007358534494414926
98 0.024944555014371872 0.05 0.0007124415715225041
99 0.024563251063227654 0.05 0.0006908271461725235
tuning, 0, 0.00017735925212036818
tuning, 1, 0.00017735925212036818
tuning, 2, 0.00017564237350597978
tuning, 3, 0.00017280012252740562
tuning, 4, 0.00016914642765186727
tuning, 5, 0.0001650665362831205
tuning, 6, 0.00016054158913902938
tuning, 7, 0.00015585406799800694
tuning, 8, 0.00015116072609089315
tuning, 9, 0.00014674813428428024
tuning, 10, 0.00014262487820815295
tuning, 11, 0.00013882017810828984
tuning, 12, 0.00013568022404797375
tuning, 13, 0.00013301956641953439
tuning, 14, 0.00013019486505072564
tuning, 15, 0.00012780274846591055
tuning, 16, 0.00012551905820146203
tuning, 17, 0.00012330360186751932
tuning, 18, 0.00012121634790673852
tuning, 19, 0.00011934794019907713
tuning, 20, 0.00011744689982151613
tuning, 21, 0.00011574662494240329
tuning, 22, 0.00011401819938328117
tuning, 23, 0.00011217681458219886
tuning, 24, 0.00011041772086173296
tuning, 25, 0.00010880314221139997
tuning, 26, 0.0001071866718120873
tuning, 27, 0.00010572055907687172
tuning, 28, 0.0001043197262333706
tuning, 29, 0.00010292205115547404
tuning, 30, 0.00010158752411371097
tuning, 31, 0.00010029245459008962
tuning, 32, 9.906095510814339e-05
tuning, 33, 9.783272253116593e-05
tuning, 34, 9.663650416769087e-05
