
  0%|                                                                                                                                                                                                                                                                                                                                                                              | 0/10 [00:00<?, ?it/s]
0, 0.1364392638206482
1, 0.1364392638206482
2, 0.1297922134399414
3, 0.1169482097029686
4, 0.09893609583377838
5, 0.07756025344133377
6, 0.055496107786893845
7, 0.03878655657172203
8, 0.027090907096862793
9, 0.01956772804260254
10, 0.015127427875995636
11, 0.012711890041828156
12, 0.011474821716547012
13, 0.010833295993506908
14, 0.010430825874209404
15, 0.0100706797093153
16, 0.009662589058279991
17, 0.00917760469019413
18, 0.008623211644589901
19, 0.008024703711271286
20, 0.0074099390767514706
21, 0.006804025731980801
22, 0.00622645765542984
23, 0.0056918915361166
24, 0.005209413357079029
25, 0.0047812252305448055
26, 0.004408423323184252
27, 0.00408655870705843
28, 0.0038106569554656744
29, 0.0035743042826652527
30, 0.0033716901671141386
31, 0.003197073470801115
32, 0.003045833669602871
33, 0.002913940465077758
34, 0.0027984369080513716
35, 0.002696909010410309
36, 0.002607555827125907
37, 0.0025293012149631977
38, 0.0024609840475022793
39, 0.0024020476266741753
40, 0.0023515617940574884
41, 0.0023088890593498945
42, 0.0022740005515515804
43, 0.002245606854557991
44, 0.0022237177472561598
45, 0.0022071893326938152
46, 0.0021954530384391546
47, 0.002187681384384632
48, 0.0021833672653883696
49, 0.002181281102821231
0 2.472783327102661 0.05 7.611921310424805
1 2.3057823181152344 0.05 6.618487358093262
2 2.1294376850128174 0.05 5.644845008850098
3 1.9182345867156982 0.05 4.580634117126465
4 1.6305413246154785 0.05 3.309678316116333
5 1.2721056938171387 0.05 2.0145058631896973
6 0.8867573738098145 0.05 0.9788851737976074
7 0.6099305748939514 0.05 0.46310871839523315
8 0.4836854934692383 0.05 0.2912381887435913
9 0.3981313407421112 0.05 0.19732171297073364
10 0.3434792757034302 0.05 0.14686664938926697
11 0.30250242352485657 0.05 0.11391471326351166
12 0.26959577202796936 0.05 0.09047912061214447
13 0.24308881163597107 0.05 0.07356176525354385
14 0.22175689041614532 0.05 0.06121761351823807
15 0.20422711968421936 0.05 0.05192171037197113
16 0.1895291805267334 0.05 0.04471717029809952
17 0.1770552396774292 0.05 0.0390247143805027
18 0.16628052294254303 0.05 0.034419529139995575
19 0.15693198144435883 0.05 0.030658088624477386
20 0.1486816108226776 0.05 0.02751925401389599
21 0.1413588523864746 0.05 0.024875294417142868
22 0.13480523228645325 0.05 0.0226222425699234
23 0.12890183925628662 0.05 0.02068427950143814
24 0.12354253232479095 0.05 0.019000068306922913
25 0.11866959929466248 0.05 0.01753077656030655
26 0.11416713148355484 0.05 0.01622573286294937
27 0.11003810912370682 0.05 0.015073302201926708
28 0.10619240999221802 0.05 0.014038125053048134
29 0.10261137783527374 0.05 0.01310729794204235
30 0.09927380084991455 0.05 0.012268499471247196
31 0.09614040702581406 0.05 0.011506257578730583
32 0.09319403022527695 0.05 0.010811809450387955
33 0.09041021019220352 0.05 0.010175531730055809
34 0.0877784863114357 0.05 0.009591760113835335
35 0.08529233932495117 0.05 0.009056120179593563
36 0.08291646838188171 0.05 0.008558619767427444
37 0.08066414296627045 0.05 0.008099965751171112
38 0.07851122319698334 0.05 0.007673361804336309
39 0.07646454125642776 0.05 0.00727850804105401
40 0.07449743896722794 0.05 0.006908835843205452
41 0.0726001113653183 0.05 0.006561403162777424
42 0.07081235200166702 0.05 0.0062422361224889755
43 0.0690651461482048 0.05 0.005937997717410326
44 0.0673903375864029 0.05 0.005653500556945801
45 0.06578883528709412 0.05 0.005387987941503525
46 0.06423646211624146 0.05 0.005136714316904545
47 0.06274093687534332 0.05 0.004900316707789898
48 0.061297789216041565 0.05 0.004677478224039078
49 0.059906501322984695 0.05 0.004467556718736887
50 0.05855903401970863 0.05 0.00426884088665247
51 0.05725971609354019 0.05 0.004081507213413715
52 0.055988065898418427 0.05 0.0039022318087518215
53 0.054772354662418365 0.05 0.0037346077151596546
54 0.05358470603823662 0.05 0.0035744057968258858
55 0.05243544280529022 0.05 0.0034227254800498486
56 0.05132542923092842 0.05 0.0032793465070426464
57 0.05023925378918648 0.05 0.003142016939818859
58 0.049188293516635895 0.05 0.0030119353905320168
59 0.048170603811740875 0.05 0.002888592891395092
60 0.047176968306303024 0.05 0.002770653460174799
61 0.046215951442718506 0.05 0.002658924087882042
62 0.045276667922735214 0.05 0.0025519435293972492
63 0.04436827823519707 0.05 0.002450571395456791
64 0.04347461089491844 0.05 0.0023528465535491705
65 0.04261433333158493 0.05 0.002260651206597686
66 0.041774362325668335 0.05 0.002172410022467375
67 0.040956541895866394 0.05 0.002088183769956231
68 0.04015720263123512 0.05 0.0020074700005352497
69 0.03938322141766548 0.05 0.001930832746438682
70 0.038624849170446396 0.05 0.0018571875989437103
71 0.0378875732421875 0.05 0.0017869637813419104
72 0.03716851770877838 0.05 0.0017197788693010807
73 0.03646499663591385 0.05 0.0016552915330976248
74 0.03578411415219307 0.05 0.0015940528828650713
75 0.03511501103639603 0.05 0.0015349979512393475
76 0.03446683660149574 0.05 0.0014788529369980097
77 0.033829931169748306 0.05 0.0014247031649574637
78 0.03321009501814842 0.05 0.0013729740167036653
79 0.03260430321097374 0.05 0.0013233418576419353
80 0.03201567381620407 0.05 0.001275990391150117
81 0.031441234052181244 0.05 0.0012306123971939087
82 0.03087587282061577 0.05 0.0011867538560181856
83 0.030325111001729965 0.05 0.0011447928845882416
84 0.029787903651595116 0.05 0.0011045923456549644
85 0.02926633693277836 0.05 0.0010662495624274015
86 0.028749845921993256 0.05 0.0010289475321769714
87 0.028250915929675102 0.05 0.0009935442358255386
88 0.027756642550230026 0.05 0.0009590826230123639
89 0.02727830596268177 0.05 0.0009263113024644554
90 0.026817714795470238 0.05 0.0008952940115705132
91 0.026351338252425194 0.05 0.000864425441250205
92 0.025910332798957825 0.05 0.0008357341284863651
93 0.025472726672887802 0.05 0.0008077425882220268
94 0.025044497102499008 0.05 0.0007808124646544456
95 0.024626554921269417 0.05 0.000754969660192728
96 0.024211574345827103 0.05 0.0007297400734387338
97 0.02381134033203125 0.05 0.0007058133487589657
98 0.023421110585331917 0.05 0.0006828685873188078
99 0.023037247359752655 0.05 0.0006606681272387505
tuning, 0, 0.002184927463531494
tuning, 1, 0.0015657918993383646
tuning, 2, 0.0012753157643601298
tuning, 3, 0.0011838421924039721
tuning, 4, 0.001117465551942587
tuning, 5, 0.0010528075508773327
tuning, 6, 0.0009979733731597662
tuning, 7, 0.0009438066626898944
tuning, 8, 0.0008899305830709636
tuning, 9, 0.0008405301487073302
tuning, 10, 0.0007954260800033808
tuning, 11, 0.0007553226314485073
tuning, 12, 0.0007228818139992654
tuning, 13, 0.0007001628982834518
tuning, 14, 0.000684682687278837
tuning, 15, 0.0006722554098814726
tuning, 16, 0.0006579218315891922
tuning, 17, 0.0006382971187122166
tuning, 18, 0.0006140279001556337
tuning, 19, 0.00059077562764287
tuning, 20, 0.0005738669424317777
tuning, 21, 0.000561213179025799
tuning, 22, 0.0005475864163599908
tuning, 23, 0.0005299040931276977
tuning, 24, 0.0005121084395796061
tuning, 25, 0.000497646105941385
tuning, 26, 0.0004867832758463919
tuning, 27, 0.00047734990948811173
tuning, 28, 0.0004680685233324766
tuning, 29, 0.00045879275421611965
tuning, 30, 0.00044949911534786224
tuning, 31, 0.0004409101966302842
tuning, 32, 0.00043314951471984386
tuning, 33, 0.0004256175016053021
tuning, 34, 0.0004176574875600636
tuning, 35, 0.0004096247721463442
tuning, 36, 0.0004021561471745372
tuning, 37, 0.00039572897367179394
tuning, 38, 0.00038994019269011915
tuning, 39, 0.00038393097929656506
tuning, 40, 0.0003773774369619787
tuning, 41, 0.00037019699811935425
tuning, 42, 0.00036330963484942913
tuning, 43, 0.0003570241970010102
tuning, 44, 0.0003512246476020664
tuning, 45, 0.00034575071185827255
tuning, 46, 0.00034071048139594495
tuning, 47, 0.00033582825562916696
tuning, 48, 0.0003310984466224909
tuning, 49, 0.0003264079277869314

 10%|███████████████████████████████████▊                                                                                                                                                                                                                                                                                                                                  | 1/10 [00:44<06:44, 44.95s/it]
0, 0.1123598963022232
1, 0.1123598963022232
2, 0.10478799045085907
3, 0.09046928584575653
4, 0.07124525308609009
5, 0.05020029470324516
6, 0.03146941587328911
7, 0.020337693393230438
8, 0.014882951974868774
9, 0.012929710559546947
10, 0.012753906659781933
11, 0.013247586786746979
12, 0.013819929212331772
13, 0.014212550595402718
14, 0.014346875250339508
15, 0.014237076044082642
16, 0.013929322361946106
17, 0.01347978413105011
18, 0.01294085755944252
19, 0.012352479621767998
20, 0.011743656359612942
21, 0.01113339327275753
22, 0.010536080226302147
23, 0.00996104534715414
24, 0.009413734078407288
25, 0.008898777887225151
26, 0.008419239893555641
27, 0.007976723834872246
28, 0.007571899797767401
29, 0.007205534726381302
30, 0.006876114755868912
31, 0.006581929977983236
32, 0.006320573389530182
33, 0.00608969246968627
34, 0.005886700004339218
35, 0.005709090735763311
36, 0.005554625298827887
37, 0.005420657806098461
38, 0.005305526312440634
39, 0.005207373760640621
40, 0.005124687682837248
41, 0.005056166090071201
42, 0.005000266712158918
43, 0.004955579526722431
44, 0.004921157844364643
45, 0.00489553390070796
46, 0.004877374041825533
47, 0.0048657068982720375
48, 0.004859055858105421
49, 0.004856043495237827
0 2.840019941329956 0.05 8.04101848602295
1 2.672651767730713 0.05 7.121196746826172
2 2.496267080307007 0.05 6.212271213531494
3 2.298201322555542 0.05 5.265558242797852
4 2.0611143112182617 0.05 4.235185623168945
5 1.7418466806411743 0.05 3.024740695953369
6 1.3550281524658203 0.05 1.8304798603057861
7 0.9849032163619995 0.05 0.967064380645752
8 0.7966978549957275 0.05 0.6327841281890869
9 0.6750293374061584 0.05 0.45426952838897705
10 0.5734773874282837 0.05 0.32786938548088074
11 0.4887132942676544 0.05 0.23810942471027374
12 0.4251396358013153 0.05 0.1801903247833252
13 0.37589314579963684 0.05 0.1408630609512329
14 0.33664670586586 0.05 0.11298400908708572
15 0.3047823905944824 0.05 0.09260788559913635
16 0.27848872542381287 0.05 0.07731851190328598
17 0.2565048933029175 0.05 0.06559331715106964
18 0.23788826167583466 0.05 0.0564175583422184
19 0.22192920744419098 0.05 0.049101777374744415
20 0.20811110734939575 0.05 0.043177638202905655
21 0.1960238218307495 0.05 0.03830769285559654
22 0.18535497784614563 0.05 0.03425128012895584
23 0.17587938904762268 0.05 0.030838849022984505
24 0.16738486289978027 0.05 0.02793191373348236
25 0.15972420573234558 0.05 0.02543370984494686
26 0.15277385711669922 0.05 0.02326839044690132
27 0.14643651247024536 0.05 0.02137799933552742
28 0.1406337171792984 0.05 0.01971728727221489
29 0.1352880299091339 0.05 0.018246812745928764
30 0.13035090267658234 0.05 0.016939334571361542
31 0.1257694512605667 0.05 0.01576952263712883
32 0.12151036411523819 0.05 0.014719564467668533
33 0.11752437800168991 0.05 0.013769691810011864
34 0.11378233134746552 0.05 0.01290678046643734
35 0.11026651412248611 0.05 0.012121478095650673
36 0.10696493834257126 0.05 0.01140646729618311
37 0.10383902490139008 0.05 0.010749530047178268
38 0.10087356716394424 0.05 0.010144323110580444
39 0.09808510541915894 0.05 0.009591231122612953
40 0.09542429447174072 0.05 0.009077915921807289
41 0.0928843691945076 0.05 0.008601091802120209
42 0.09048222005367279 0.05 0.008161966688930988
43 0.08819641172885895 0.05 0.007754792459309101
44 0.08599583059549332 0.05 0.007372641004621983
45 0.08389720320701599 0.05 0.007017191033810377
46 0.08189092576503754 0.05 0.0066855913028120995
47 0.07998038083314896 0.05 0.006377276498824358
48 0.07812181115150452 0.05 0.006084331776946783
49 0.07635191828012466 0.05 0.005811767186969519
50 0.07465767860412598 0.05 0.005556704476475716
51 0.07301370799541473 0.05 0.005314680282026529
52 0.07143564522266388 0.05 0.005087427794933319
53 0.06990959495306015 0.05 0.004872388206422329
54 0.06844896078109741 0.05 0.0046709151938557625
55 0.06703247129917145 0.05 0.004479596391320229
56 0.06567125022411346 0.05 0.004299508407711983
57 0.06433640420436859 0.05 0.004126500803977251
58 0.06306210160255432 0.05 0.003964653238654137
59 0.06184104084968567 0.05 0.0038126055151224136
60 0.060635894536972046 0.05 0.003665455151349306
61 0.05945771932601929 0.05 0.0035243965685367584
62 0.058346766978502274 0.05 0.0033939220011234283
63 0.05724643915891647 0.05 0.0032671215012669563
64 0.05619087815284729 0.05 0.0031477478332817554
65 0.05515994504094124 0.05 0.0030333041213452816
66 0.05415542051196098 0.05 0.002923830645158887
67 0.05317676067352295 0.05 0.0028191101737320423
68 0.0522395595908165 0.05 0.002720616525039077
69 0.05131607502698898 0.05 0.0026252770330756903
70 0.05042392760515213 0.05 0.002534787869080901
71 0.049544937908649445 0.05 0.0024471853394061327
72 0.04869359731674194 0.05 0.0023638070560991764
73 0.047859128564596176 0.05 0.002283483510836959
74 0.04706556349992752 0.05 0.0022083851508796215
75 0.0462697297334671 0.05 0.0021343333646655083
76 0.045502617955207825 0.05 0.002064149361103773
77 0.044767286628484726 0.05 0.0019979740027338266
78 0.044016849249601364 0.05 0.001931551261804998
79 0.04330652207136154 0.05 0.001869712839834392
80 0.04261254146695137 0.05 0.001810269197449088
81 0.041927892714738846 0.05 0.0017525659641250968
82 0.0412522591650486 0.05 0.001696538645774126
83 0.04062962532043457 0.05 0.0016457124147564173
84 0.03997250646352768 0.05 0.0015929092187434435
85 0.039358675479888916 0.05 0.001544362399727106
86 0.03875633329153061 0.05 0.001497454708442092
87 0.03814849257469177 0.05 0.0014508520253002644
88 0.03757236525416374 0.05 0.001407360308803618
89 0.03701075538992882 0.05 0.0013656021328642964
90 0.036436039954423904 0.05 0.001323520322330296
91 0.035909801721572876 0.05 0.001285565784201026
92 0.03538064286112785 0.05 0.0012479571159929037
93 0.03484431654214859 0.05 0.0012104089837521315
94 0.03433198854327202 0.05 0.0011750765843316913
95 0.03385206684470177 0.05 0.0011424536351114511
96 0.03335198014974594 0.05 0.001108948839828372
97 0.03285533934831619 0.05 0.0010761682642623782
98 0.03239643573760986 0.05 0.0010463157668709755
99 0.03193560242652893 0.05 0.0010167601285502315
tuning, 0, 0.00490062590688467
tuning, 1, 0.004130851943045855
tuning, 2, 0.003875709604471922
tuning, 3, 0.0036963101010769606
tuning, 4, 0.0034584826789796352
tuning, 5, 0.0032134614884853363
tuning, 6, 0.0030449754558503628
tuning, 7, 0.002962283557280898
tuning, 8, 0.00291292741894722
tuning, 9, 0.0028494917787611485
tuning, 10, 0.002768026664853096
tuning, 11, 0.0026869862340390682
tuning, 12, 0.0026249978691339493
tuning, 13, 0.0025812508538365364
tuning, 14, 0.0025459795724600554
tuning, 15, 0.002506095450371504
tuning, 16, 0.0024575749412178993
tuning, 17, 0.0024000213015824556
tuning, 18, 0.002340128645300865
tuning, 19, 0.0022848984226584435
tuning, 20, 0.0022403248585760593
tuning, 21, 0.0022044081706553698
tuning, 22, 0.0021724102552980185
tuning, 23, 0.0021408768370747566
tuning, 24, 0.0021091809030622244
tuning, 25, 0.0020787189714610577
tuning, 26, 0.0020487417932599783
tuning, 27, 0.0020192116498947144
tuning, 28, 0.0019894083961844444
tuning, 29, 0.0019591692835092545
tuning, 30, 0.0019286430906504393
tuning, 31, 0.0018972335383296013
tuning, 32, 0.0018658849876374006
tuning, 33, 0.0018363528652116656
tuning, 34, 0.0018101027235388756
tuning, 35, 0.0017863772809505463
tuning, 36, 0.0017632225062698126
tuning, 37, 0.0017389788990840316
tuning, 38, 0.0017127798637375236
tuning, 39, 0.00168709852732718
tuning, 40, 0.0016619445523247123
tuning, 41, 0.0016377222491428256
tuning, 42, 0.0016139717772603035
tuning, 43, 0.001590377651154995
tuning, 44, 0.001566821476444602
tuning, 45, 0.0015437466790899634
tuning, 46, 0.0015215113526210189
tuning, 47, 0.001499868929386139
tuning, 48, 0.0014783255755901337
tuning, 49, 0.0014564621960744262

 20%|███████████████████████████████████████████████████████████████████████▌                                                                                                                                                                                                                                                                                              | 2/10 [01:29<05:57, 44.65s/it]
0, 0.09775816649198532
1, 0.09775816649198532
2, 0.09261485189199448
3, 0.08272597938776016
4, 0.06901426613330841
5, 0.05310665816068649
6, 0.03751777112483978
7, 0.02680552564561367
8, 0.02017281949520111
9, 0.016283344477415085
10, 0.013950986787676811
11, 0.012393873184919357
12, 0.011184858158230782
13, 0.010130364447832108
14, 0.009164637885987759
15, 0.008278241381049156
16, 0.007476873695850372
17, 0.006764757446944714
18, 0.006139544304460287
19, 0.005596464034169912
20, 0.0051293931901454926
21, 0.0047325557097792625
22, 0.004399741999804974
23, 0.00412405002862215
24, 0.003895954927429557
25, 0.0037059257738292217
26, 0.003543999744579196
27, 0.0034018857404589653
28, 0.0032726358622312546
29, 0.003151689423248172
30, 0.0030366021674126387
31, 0.002926398068666458
32, 0.0028212699107825756
33, 0.002721790224313736
34, 0.002628930378705263
35, 0.0025433881673961878
36, 0.0024658222682774067
37, 0.002396359806880355
38, 0.0023352201096713543
39, 0.002282225526869297
40, 0.00223705661483109
41, 0.002199367852881551
42, 0.002168375300243497
43, 0.0021435748785734177
44, 0.0021242874208837748
45, 0.0021100076846778393
46, 0.002099900972098112
47, 0.002093384973704815
48, 0.0020895812194794416
49, 0.0020878599025309086
0 2.6263818740844727 0.05 8.744840621948242
1 2.467369794845581 0.05 7.717998504638672
2 2.2952423095703125 0.05 6.678720474243164
3 2.0081863403320312 0.05 5.112627029418945
4 1.6408225297927856 0.05 3.413181781768799
5 1.1903148889541626 0.05 1.7962214946746826
6 0.8549498915672302 0.05 0.9266536831855774
7 0.6396430134773254 0.05 0.518694281578064
8 0.5149912238121033 0.05 0.33622950315475464
9 0.4381483197212219 0.05 0.24337640404701233
10 0.3830755949020386 0.05 0.18603947758674622
11 0.34024184942245483 0.05 0.14676132798194885
12 0.30613186955451965 0.05 0.11881008744239807
13 0.2788051664829254 0.05 0.09854571521282196
14 0.2564322054386139 0.05 0.08336453884840012
15 0.23783881962299347 0.05 0.07171361893415451
16 0.2221534103155136 0.05 0.06256654113531113
17 0.20871983468532562 0.05 0.05522854998707771
18 0.19709038734436035 0.05 0.04924555867910385
19 0.18689222633838654 0.05 0.04428112506866455
20 0.17783574759960175 0.05 0.04009353369474411
21 0.16970451176166534 0.05 0.03651093691587448
22 0.16235233843326569 0.05 0.033415909856557846
23 0.15564806759357452 0.05 0.030713098123669624
24 0.14952363073825836 0.05 0.028343651443719864
25 0.14389026165008545 0.05 0.02624816633760929
26 0.1386747658252716 0.05 0.024379849433898926
27 0.13384100794792175 0.05 0.022709865123033524
28 0.12933863699436188 0.05 0.0212076585739851
29 0.12512576580047607 0.05 0.019848590716719627
30 0.12117109447717667 0.05 0.018613766878843307
31 0.11743801832199097 0.05 0.017484517768025398
32 0.11391520500183105 0.05 0.01645127311348915
33 0.11058099567890167 0.05 0.015502337366342545
34 0.1074068695306778 0.05 0.014625148847699165
35 0.10439097881317139 0.05 0.01381535641849041
36 0.10152368992567062 0.05 0.01306685246527195
37 0.09877979755401611 0.05 0.012370077893137932
38 0.09615988284349442 0.05 0.01172260195016861
39 0.09365801513195038 0.05 0.011120544746518135
40 0.09125862270593643 0.05 0.010558055713772774
41 0.08897083252668381 0.05 0.010035326704382896
