
100%|████████████████████████████████████████████████████████████████████████████████████████████████████████████████████████████████████████████████████████████████████████████████████████████████████████████████████████████████████████████████████████████████████████████████| 1/1 [00:00<00:00,  4.51it/s]
0, 0.1364392638206482
1, 0.1364392638206482
2, 0.12979233264923096
3, 0.11694817990064621
4, 0.09893616288900375
5, 0.07756038755178452
6, 0.055496104061603546
7, 0.03877310827374458
8, 0.027045514434576035
9, 0.019489746540784836
10, 0.015038232319056988
11, 0.012640593573451042
12, 0.011447630822658539
13, 0.010865263640880585
14, 0.010523736476898193
15, 0.010215569287538528
16, 0.00984138436615467
17, 0.009367214515805244
18, 0.008805230259895325
19, 0.008180845528841019
20, 0.00752970902249217
21, 0.00688032153993845
22, 0.006261791102588177
23, 0.005697084125131369
24, 0.005200998857617378
25, 0.004777844529598951
26, 0.004425409249961376
27, 0.004136771894991398
28, 0.003902202006429434
29, 0.0037089274264872074
30, 0.0035452391020953655
31, 0.0034007790964096785
32, 0.0032659638673067093
33, 0.003134528174996376
34, 0.00300300563685596
35, 0.0028688404709100723
36, 0.0027321295347064734
37, 0.0025934719014912844
38, 0.002454793779179454
39, 0.002318162005394697
40, 0.002185906982049346
41, 0.0020598475821316242
42, 0.0019416677532717586
43, 0.0018322891555726528
44, 0.0017320899059996009
45, 0.0016413491684943438
46, 0.0015595307340845466
47, 0.0014860359951853752
48, 0.0014202638994902372
49, 0.0013612298062071204
50, 0.0013079213676974177
51, 0.0012596736196428537
52, 0.0012156127486377954
53, 0.0011752501595765352
54, 0.0011379075003787875
55, 0.0011033883783966303
56, 0.0010712993098422885
57, 0.0010414088610559702
58, 0.0010135793127119541
59, 0.0009876915719360113
60, 0.0009635763126425445
61, 0.0009412764338776469
62, 0.0009204725502058864
63, 0.0009013274102471769
64, 0.0008835971239022911
65, 0.0008672429248690605
66, 0.0008522231946699321
67, 0.0008383252425119281
68, 0.0008255948196165264
69, 0.000813861726783216
70, 0.0008031033794395626
71, 0.0007932474836707115
72, 0.0007841397891752422
73, 0.000775845895987004
74, 0.0007682613795623183
75, 0.0007612982299178839
76, 0.0007549221627414227
77, 0.0007491343421861529
78, 0.0007438301108777523
79, 0.0007390721584670246
80, 0.0007347366772592068
81, 0.0007308354834094644
82, 0.0007273264927789569
83, 0.0007242296705953777
84, 0.0007214531069621444
85, 0.0007189451134763658
86, 0.0007168217562139034
87, 0.0007149608572944999
88, 0.0007133324397727847
89, 0.0007119911606423557
90, 0.0007108397549018264
91, 0.0007098870119079947
92, 0.0007091184379532933
93, 0.0007084968965500593
94, 0.0007080051000230014
95, 0.0007076761103235185
96, 0.0007074258173815906
97, 0.0007072712178342044
98, 0.0007071978179737926
  0%|                                                                                                                                                                                                                                                                                        | 0/1 [00:00<?, ?it/s]
99, 0.0007071506697684526
0 2.4191129207611084 0.5 7.640563011169434
1 1.3586543798446655 0.5 2.4100770950317383
2 1.185579776763916 0.5 1.8351627588272095
3 1.2856628894805908 0.5 2.158078670501709
4 1.4780553579330444 0.5 2.852294921875
5 1.4490272998809814 0.5 2.7413604259490967
6 1.3666828870773315 0.5 2.4386448860168457
7 1.393136739730835 0.5 2.5339648723602295
8 1.4867178201675415 0.5 2.8858261108398438
9 1.479873538017273 0.5 2.859316349029541
10 1.4011129140853882 0.5 2.563063144683838
11 1.4344114065170288 0.5 2.6863372325897217
12 1.5025900602340698 0.5 2.947772979736328
13 1.5164828300476074 0.5 3.002534866333008
14 1.458726406097412 0.5 2.7781822681427
15 1.4586222171783447 0.5 2.777785301208496
16 1.5145225524902344 0.5 2.9947776794433594
17 1.5107134580612183 0.5 2.979732036590576
18 1.460965871810913 0.25 2.7867188453674316
19 1.4721782207489014 0.25 2.8296573162078857
20 0.7324178814888 0.25 0.700375497341156
21 0.5187060236930847 0.25 0.3512817621231079
22 0.4054363965988159 0.25 0.21461422741413116
23 0.43588972091674805 0.25 0.24806547164916992
24 0.48162129521369934 0.25 0.30284780263900757
25 0.547187328338623 0.25 0.39091747999191284
26 0.5780901908874512 0.25 0.43631911277770996
27 0.6055815815925598 0.25 0.47880464792251587
28 0.6556742787361145 0.25 0.5612926483154297
29 0.6673102378845215 0.25 0.581391453742981
30 0.6805844306945801 0.25 0.6047516465187073
31 0.692103922367096 0.25 0.6253968477249146
32 0.6986196637153625 0.25 0.6372277736663818
33 0.7137330174446106 0.25 0.6650964021682739
34 0.7144797444343567 0.25 0.6664888858795166
35 0.727757453918457 0.25 0.6914907693862915
36 0.752815306186676 0.25 0.7399288415908813
37 0.7560259699821472 0.25 0.7462536096572876
38 0.7726556658744812 0.125 0.77944415807724
39 0.7563037276268005 0.125 0.746802031993866
40 0.2663658559322357 0.125 0.09263394773006439
41 0.1627415269613266 0.125 0.03457879275083542
42 0.11823944002389908 0.125 0.0182531476020813
43 0.10704152286052704 0.125 0.014959516935050488
44 0.09486205875873566 0.125 0.011748924851417542
45 0.10263829678297043 0.125 0.013754092156887054
46 0.10889279097318649 0.125 0.015481438487768173
47 0.11842098087072372 0.125 0.01830924116075039
48 0.13809189200401306 0.125 0.02489713579416275
49 0.15488718450069427 0.125 0.031321607530117035
50 0.18215730786323547 0.125 0.043321773409843445
51 0.1986074000597 0.125 0.05149960517883301
52 0.21889492869377136 0.125 0.06255822628736496
53 0.22569097578525543 0.125 0.06650303304195404
54 0.2356732189655304 0.125 0.07251594960689545
55 0.2350621223449707 0.125 0.07214035838842392
56 0.2379000186920166 0.125 0.07389277219772339
57 0.23501595854759216 0.125 0.07211203873157501
58 0.23439504206180573 0.125 0.07173149287700653
59 0.2320467084646225 0.125 0.07030138373374939
60 0.23178912699222565 0.0625 0.0701453909277916
61 0.2307511568069458 0.0625 0.0695185735821724
62 0.06139857694506645 0.0625 0.0049218651838600636
63 0.04591718316078186 0.0625 0.0027527292259037495
64 0.04028517007827759 0.0625 0.002118866192176938
65 0.036003485321998596 0.0625 0.0016923965886235237
66 0.032603919506073 0.0625 0.0013878822792321444
67 0.02985847368836403 0.0625 0.0011639874428510666
68 0.02760178968310356 0.0625 0.0009946894133463502
69 0.025713106617331505 0.0625 0.000863221357576549
70 0.024145828559994698 0.0625 0.0007611974142491817
71 0.022800134494900703 0.0625 0.0006787156453356147
72 0.021634578704833984 0.0625 0.0006110966787673533
73 0.02061835490167141 0.0625 0.0005550358910113573
74 0.019705703482031822 0.0625 0.0005069870967417955
75 0.018907899037003517 0.0625 0.00046676641795784235
76 0.018172970041632652 0.0625 0.0004311861703172326

100%|████████████████████████████████████████████████████████████████████████████████████████████████████████████████████████████████████████████████████████████████████████████████████████████████████████████████████████████████████████████████████████████████████████████████| 1/1 [00:07<00:00,  7.52s/it]
78 0.016894888132810593 0.0625 0.00037266939762048423
79 0.016335511580109596 0.0625 0.0003484002663753927
80 0.015801195055246353 0.0625 0.0003259814402554184
81 0.015319406986236572 0.0625 0.000306405738228932
82 0.014859490096569061 0.0625 0.0002882842090912163
83 0.01442797388881445 0.0625 0.0002717838797252625
84 0.014018097892403603 0.0625 0.00025656132493168116
85 0.013635467737913132 0.0625 0.00024274659517686814
86 0.013273746706545353 0.0625 0.00023003827664069831
87 0.01292484998703003 0.0625 0.0002181042218580842
88 0.012592884711921215 0.0625 0.00020704441703855991
89 0.012282779440283775 0.0625 0.00019697284733410925
90 0.011980102397501469 0.0625 0.00018738469225354493
91 0.011702497489750385 0.0625 0.00017880107043311
92 0.011422128416597843 0.0625 0.00017033626500051469
93 0.011158891953527927 0.0625 0.0001625755539862439
94 0.010902656242251396 0.0625 0.00015519498265348375
95 0.010661249049007893 0.0625 0.00014839839423075318
96 0.010431088507175446 0.0625 0.00014206016203388572
97 0.010203373618423939 0.0625 0.0001359254092676565
98 0.009987927041947842 0.0625 0.00013024581130594015
99 0.009776420891284943 0.0625 0.00012478799908421934
inversion time : 39.73211216926575
100%|████████████████████████████████████████████████████████████████████████████████████████████████████████████████████████████████████████████████████████████████████████████████████████████████████████████████████████████████████████████████████████████████████████████████| 1/1 [00:00<00:00, 54.35it/s]
original latents (mean/std) : -0.00758, 1.00421
reconstructed latents (mean/std) : -0.02695, 1.09524
0, 0.1123598963022232
1, 0.1123598963022232
2, 0.10478761792182922
3, 0.09046941250562668
4, 0.07124530524015427
5, 0.050200216472148895
6, 0.031469397246837616
7, 0.020330235362052917
8, 0.014868414960801601
9, 0.012927460484206676
10, 0.012790080159902573
11, 0.013342557474970818
12, 0.013982072472572327
13, 0.01443933229893446
14, 0.014627650380134583
15, 0.014555993489921093
16, 0.014270186424255371
17, 0.013828097842633724
18, 0.013283982872962952
19, 0.012678712606430054
20, 0.012041635811328888
21, 0.011393673717975616
22, 0.010748913511633873
23, 0.010116003453731537
24, 0.009504176676273346
25, 0.008919402956962585
26, 0.008368537761271
27, 0.007856743410229683
28, 0.007387973368167877
29, 0.00696283346042037
30, 0.00658178236335516
31, 0.006242136470973492
32, 0.0059390561655163765
33, 0.005667685531079769
34, 0.0054232217371463776
35, 0.005200387444347143
36, 0.004994866903871298
37, 0.004803357645869255
38, 0.004623597487807274
39, 0.004454330541193485
40, 0.004294807557016611
41, 0.004144218750298023
42, 0.004002164117991924
43, 0.0038686031475663185
44, 0.0037435637786984444
45, 0.0036268949043005705
46, 0.0035188086330890656
47, 0.003418800188228488
48, 0.003326448379084468
49, 0.0032414605375379324
50, 0.0031635526102036238
51, 0.003092141356319189
52, 0.0030266388785094023
53, 0.0029665071051567793
54, 0.002911239629611373
55, 0.0028603393584489822
56, 0.0028132437728345394
57, 0.002769543556496501
58, 0.002728955587372184
59, 0.0026911748573184013
60, 0.0026559364050626755
61, 0.0026231128722429276
62, 0.0025924560613930225
63, 0.002563929185271263
64, 0.0025372605305165052
65, 0.0025124051608145237
66, 0.0024892331566661596
67, 0.002467590384185314
68, 0.0024474402889609337
69, 0.0024287020787596703
70, 0.0024113133549690247
71, 0.002395204734057188
72, 0.0023802330251783133
73, 0.0023664047475904226
74, 0.002353653544560075
75, 0.002341916784644127
76, 0.0023310822434723377
77, 0.0023211934603750706
78, 0.0023121717385947704
79, 0.002303852466866374
80, 0.002296366496011615
81, 0.002289555035531521
82, 0.0022834965493530035
83, 0.00227799522690475
84, 0.002273114863783121
85, 0.0022687730379402637
86, 0.002264955546706915
87, 0.002261616289615631
88, 0.0022587415296584368
89, 0.0022562886588275433
90, 0.0022542322985827923
91, 0.0022525344975292683
92, 0.0022511621937155724
93, 0.0022500695195049047
94, 0.0022492092102766037
95, 0.002248586853966117
  0%|                                                                                                                                                                                                                                                                                        | 0/1 [00:00<?, ?it/s]
96, 0.0022481640335172415
97, 0.0022478587925434113
98, 0.0022477200254797935
99, 0.0022476399317383766
0 2.7173657417297363 0.5 8.139729499816895
1 1.5222598314285278 0.5 2.5544140338897705
2 1.5895183086395264 0.5 2.785125732421875
3 1.6554299592971802 0.5 3.020893096923828
4 1.825728416442871 0.5 3.6743977069854736
5 1.7213088274002075 0.5 3.2661142349243164
6 1.6318186521530151 0.5 2.9353342056274414
7 1.6693222522735596 0.5 3.071808338165283
8 1.803497076034546 0.5 3.585458278656006
9 1.7091550827026367 0.5 3.2201545238494873
10 1.6136189699172974 0.5 2.8702237606048584
11 1.6661195755004883 0.5 3.060032844543457
12 1.7958568334579468 0.5 3.5551438331604004
13 1.6959785223007202 0.5 3.1706950664520264
14 1.6320817470550537 0.5 2.9362807273864746
15 1.6696949005126953 0.5 3.0731801986694336
16 1.7832255363464355 0.5 3.5053091049194336
17 1.6882156133651733 0.25 3.141735076904297
18 1.6520408391952515 0.25 3.0085365772247314
19 0.8964824080467224 0.25 0.8859256505966187
20 0.5992007255554199 0.25 0.3957842290401459
21 0.5430693030357361 0.25 0.3251054883003235
22 0.7151313424110413 0.25 0.5637484788894653
23 0.7710539698600769 0.25 0.6553651094436646
24 0.770306408405304 0.25 0.654094934463501
25 0.790776789188385 0.25 0.6893211007118225
26 0.785934329032898 0.25 0.6809046268463135
27 0.7873552441596985 0.25 0.6833688616752625
28 0.8077826499938965 0.25 0.7192879319190979
29 0.8062536120414734 0.25 0.7165675759315491
30 0.7889319658279419 0.25 0.6861085891723633
31 0.7964866757392883 0.25 0.6993116736412048
32 0.8131668567657471 0.25 0.7289086580276489
33 0.8068066835403442 0.25 0.7175509929656982
34 0.793540358543396 0.25 0.6941475868225098
35 0.7895694971084595 0.25 0.6872178316116333
36 0.7996442317962646 0.25 0.7048673629760742
37 0.8029384613037109 0.125 0.7106869220733643
38 0.7947533130645752 0.125 0.6962712407112122
39 0.2939209043979645 0.125 0.09523020684719086
40 0.15446966886520386 0.125 0.02630269154906273
41 0.11365770548582077 0.125 0.014240050688385963
42 0.0897594690322876 0.125 0.008881254121661186
43 0.0761355608701706 0.125 0.00638982281088829
44 0.06584490090608597 0.125 0.004779231734573841
45 0.058657702058553696 0.125 0.0037928340025246143
46 0.053301844745874405 0.125 0.0031318305991590023
47 0.04854093864560127 0.125 0.002597347367554903
48 0.04569101333618164 0.125 0.002301311120390892
49 0.04211592674255371 0.125 0.001955268671736121
50 0.04078110307455063 0.125 0.0018332921899855137
51 0.03790590167045593 0.125 0.0015838986728340387
52 0.03756723925471306 0.125 0.001555723138153553
53 0.035212840884923935 0.125 0.0013668343890458345
54 0.03552188351750374 0.125 0.0013909314293414354
55 0.033477816730737686 0.125 0.001235458068549633
56 0.034094974398612976 0.125 0.001281428849324584
57 0.03223250061273575 0.125 0.0011452538892626762
58 0.03293600678443909 0.125 0.0011957921087741852
59 0.03126024082303047 0.125 0.001077204942703247
60 0.03196714073419571 0.125 0.001126474468037486
61 0.03036569245159626 0.125 0.001016436261124909
62 0.030932024121284485 0.125 0.0010547037236392498
63 0.02945784665644169 0.125 0.0009565678774379194
64 0.029989831149578094 0.125 0.0009914294350892305
65 0.028581229969859123 0.125 0.000900483108125627
66 0.028956925496459007 0.125 0.0009243122185580432
67 0.027668798342347145 0.125 0.0008439065422862768
68 0.027960382401943207 0.125 0.0008617870626039803
69 0.02667231857776642 0.125 0.000784215226303786
70 0.02683902718126774 0.125 0.000794048944953829
71 0.025683751329779625 0.125 0.0007271611830219626
72 0.02573939599096775 0.125 0.0007303154561668634
73 0.024578949436545372 0.125 0.0006659481441602111
74 0.024616409093141556 0.125 0.0006679795333184302
75 0.02369358390569687 0.125 0.0006188356201164424
76 0.023754330351948738 0.125 0.0006220127688720822
77 0.022822987288236618 0.125 0.0005741941859014332
78 0.022768590599298477 0.125 0.0005714602884836495
79 0.02193158119916916 0.125 0.0005302170757204294
80 0.021831974387168884 0.125 0.0005254117422737181
81 0.020954879000782967 0.125 0.00048404315020889044
82 0.020777234807610512 0.125 0.0004758710856549442
83 0.020055260509252548 0.125 0.0004433741560205817
84 0.019957860931754112 0.125 0.00043907808139920235
85 0.019327953457832336 0.125 0.00041179926483891904
86 0.019318120554089546 0.125 0.00041138031519949436
87 0.01875760406255722 0.125 0.0003878541465383023
88 0.01867719739675522 0.125 0.0003845361643470824
89 0.018167180940508842 0.125 0.0003638218913692981
90 0.01809561997652054 0.125 0.00036096133408136666
91 0.0176254753023386 0.125 0.00034244864946231246

100%|████████████████████████████████████████████████████████████████████████████████████████████████████████████████████████████████████████████████████████████████████████████████████████████████████████████████████████████████████████████████████████████████████████████████| 1/1 [00:07<00:00,  7.57s/it]
93 0.016875924542546272 0.125 0.00031394168036058545
94 0.016624601557850838 0.125 0.0003046605852432549
95 0.01614207960665226 0.125 0.00028723193099722266
96 0.016013160347938538 0.125 0.00028266228036955
97 0.015625065192580223 0.125 0.00026912710745818913
98 0.01556471362709999 0.125 0.0002670520916581154
99 0.015238720923662186 0.125 0.00025598276988603175
inversion time : 39.940685510635376
original latents (mean/std) : -0.00740, 1.00280
reconstructed latents (mean/std) : -0.02615, 1.09051
100%|████████████████████████████████████████████████████████████████████████████████████████████████████████████████████████████████████████████████████████████████████████████████████████████████████████████████████████████████████████████████████████████████████████████████| 1/1 [00:00<00:00, 54.10it/s]
0, 0.09775816649198532
1, 0.09775816649198532
2, 0.09261520206928253
3, 0.0827256515622139
4, 0.06901431083679199
5, 0.0531066469848156
6, 0.03751777485013008
7, 0.026797711849212646
8, 0.02015003003180027
9, 0.016250809654593468
10, 0.013919207267463207
11, 0.012371286749839783
12, 0.01117348950356245
13, 0.010127104818820953
14, 0.009165441617369652
15, 0.008280562236905098
16, 0.007480066269636154
17, 0.006769513711333275
18, 0.00614888733252883
19, 0.005614220164716244
20, 0.005163171328604221
21, 0.004792696796357632
22, 0.004497651942074299
23, 0.0042685652151703835
24, 0.004090839996933937
25, 0.003947295248508453
26, 0.003819562029093504
27, 0.003692240221425891
28, 0.0035553814377635717
29, 0.0034045856446027756
30, 0.0032402495853602886
31, 0.0030663716606795788
32, 0.002889018040150404
33, 0.0027152933180332184
34, 0.0025500846095383167
35, 0.0023970266338437796
36, 0.002258253749459982
37, 0.002134229987859726
38, 0.002024310640990734
39, 0.0019269899930804968
40, 0.0018405253067612648
41, 0.0017633450916036963
42, 0.001693532569333911
43, 0.0016297250986099243
44, 0.0015705605037510395
45, 0.0015150945400819182
46, 0.001462570740841329
47, 0.0014126304304227233
48, 0.001365059521049261
49, 0.001319877221249044
50, 0.0012770660687237978
51, 0.0012366448063403368
52, 0.0011987454490736127
53, 0.0011634016409516335
54, 0.0011305972002446651
55, 0.001100167166441679
56, 0.0010719061829149723
57, 0.0010455998126417398
58, 0.00102109310682863
59, 0.000998171279206872
60, 0.0009767248993739486
61, 0.0009566572261974216
62, 0.0009377978276461363
63, 0.0009201982757076621
64, 0.000903704552911222
65, 0.0008883309783414006
66, 0.0008739695767872036
67, 0.0008606414776295424
68, 0.0008481912664137781
69, 0.0008366559632122517
70, 0.0008259414462372661
71, 0.0008160750730894506
72, 0.0008069073664955795
73, 0.0007984595140442252
74, 0.000790697755292058
75, 0.0007835865253582597
76, 0.0007770688971504569
77, 0.0007710948120802641
78, 0.0007656257366761565
79, 0.0007606707513332367
80, 0.0007562030805274844
81, 0.0007521449588239193
82, 0.0007485057576559484
83, 0.0007452458958141506
84, 0.0007423543138429523
85, 0.0007398116867989302
86, 0.0007375570712611079
87, 0.0007356073474511504
88, 0.0007339296862483025
89, 0.000732502609025687
90, 0.0007312813540920615
91, 0.0007302946178242564
92, 0.000729499151930213
93, 0.000728845945559442
94, 0.0007283508311957121
95, 0.0007279919227585196
96, 0.0007277436088770628
97, 0.0007275787647813559
98, 0.0007274911622516811
99, 0.0007274518720805645
  0%|                                                                                                                                                                                                                                                                                        | 0/1 [00:00<?, ?it/s]
