
  0%|                                                                                                                                                                                                                                                                                            | 0/10 [00:00<?, ?it/s]
0, 0.1364392638206482
1, 0.1364392638206482
2, 0.1297924518585205
3, 0.11694794148206711
4, 0.09893610328435898
5, 0.07756029814481735
6, 0.05549607798457146
7, 0.03877308964729309
8, 0.02704557776451111
9, 0.019489772617816925
10, 0.015038155019283295
11, 0.012640632688999176
12, 0.011447660624980927
13, 0.010865150950849056
14, 0.010523668490350246
15, 0.010215500369668007
16, 0.009841428138315678
17, 0.009367154911160469
18, 0.00880512036383152
19, 0.008181012235581875
20, 0.007529751863330603
21, 0.0068803890608251095
22, 0.006261854898184538
23, 0.005696999840438366
24, 0.00520089827477932
25, 0.004777997732162476
26, 0.004425333347171545
27, 0.004136764910072088
28, 0.003902149386703968
29, 0.0037090096157044172
30, 0.003545263782143593
31, 0.0034006997011601925
32, 0.0032658639829605818
33, 0.0031345810275524855
34, 0.003003000048920512
35, 0.0028688625898212194
36, 0.0027321435045450926
37, 0.0025934542063623667
38, 0.0024547665379941463
39, 0.002318131737411022
40, 0.0021859274711459875
41, 0.0020598568953573704
42, 0.0019416911527514458
43, 0.0018322882242500782
44, 0.0017320886254310608
45, 0.0016413431148976088
46, 0.0015595054719597101
47, 0.0014860447263345122
48, 0.001420269487425685
49, 0.001361250877380371
50, 0.0013079246273264289
51, 0.0012596516171470284
52, 0.0012156021548435092
53, 0.0011752484133467078
54, 0.001137907151132822
55, 0.0011033780174329877
56, 0.0010712927905842662
57, 0.0010414135176688433
58, 0.001013581408187747
59, 0.000987692386843264
60, 0.000963573984336108
61, 0.0009412692743353546
62, 0.0009204880334436893
63, 0.0009013409726321697
64, 0.0008835977641865611
65, 0.0008672589319758117
66, 0.000852212542667985
67, 0.000838335370644927
68, 0.0008256041328422725
69, 0.0008138557896018028
70, 0.0008030955214053392
71, 0.0007932470180094242
72, 0.0007841463084332645
73, 0.0007758415304124355
74, 0.0007682621362619102
75, 0.0007612978806719184
76, 0.0007549158181063831
77, 0.0007491247961297631
78, 0.0007438431493937969
79, 0.0007390747196041048
80, 0.0007347403443418443
81, 0.0007308271015062928
82, 0.0007273367955349386
83, 0.0007242355495691299
84, 0.0007214492652565241
85, 0.0007189381285570562
86, 0.0007168379379436374
87, 0.0007149608572944999
88, 0.0007133294711820781
89, 0.0007119992515072227
90, 0.0007108265999704599
91, 0.0007098703645169735
92, 0.0007091116858646274
93, 0.0007084924727678299
94, 0.0007080001523718238
95, 0.0007076779147610068
96, 0.0007074258173815906
97, 0.0007072786684148014
98, 0.0007071869331412017
99, 0.000707149738445878
0 2.419107437133789 0.05 7.640532493591309
1 2.259056329727173 0.05 6.662962913513184
2 2.0915746688842773 0.05 5.711629867553711
3 1.8937981128692627 0.05 4.682530403137207
4 1.6141104698181152 0.05 3.401573419570923
5 1.236223816871643 0.05 1.9952971935272217
6 0.8045822978019714 0.05 0.8451897501945496
7 0.5749203562736511 0.05 0.431547611951828
8 0.4720780551433563 0.05 0.29096511006355286
9 0.39230820536613464 0.05 0.2009407877922058
10 0.33783626556396484 0.05 0.14901357889175415
11 0.29668498039245605 0.05 0.11492231488227844
12 0.2651829123497009 0.05 0.09181304275989532
13 0.24007464945316315 0.05 0.07524990290403366
14 0.21956373751163483 0.05 0.06294114142656326
15 0.20264285802841187 0.05 0.05361372232437134
16 0.18851394951343536 0.05 0.0463981069624424
17 0.17651814222335815 0.05 0.040681030601263046
18 0.1661882847547531 0.05 0.03605903685092926
19 0.15711766481399536 0.05 0.032230228185653687
20 0.1490740180015564 0.05 0.029014647006988525
21 0.14183396100997925 0.05 0.02626478113234043
22 0.13528501987457275 0.05 0.02389531396329403
23 0.1293121725320816 0.05 0.021831931546330452
24 0.12385158985853195 0.05 0.020027030259370804
25 0.11884281039237976 0.05 0.018439926207065582
26 0.11421625316143036 0.05 0.017032139003276825
27 0.10994280874729156 0.05 0.015781454741954803
28 0.10597424954175949 0.05 0.01466270163655281
29 0.10228177905082703 0.05 0.013658715412020683
30 0.09884205460548401 0.05 0.012755479663610458
31 0.09561722725629807 0.05 0.011936737224459648
32 0.09259139001369476 0.05 0.011193206533789635
33 0.0897383838891983 0.05 0.010514043271541595
34 0.08704780042171478 0.05 0.009893020614981651
35 0.08450101315975189 0.05 0.009322602301836014
36 0.08207936584949493 0.05 0.008795919828116894
37 0.0797746479511261 0.05 0.008308891206979752
38 0.07758346945047379 0.05 0.007858717814087868
39 0.07548986375331879 0.05 0.007440302520990372
40 0.07348910719156265 0.05 0.007051139138638973
41 0.07156725227832794 0.05 0.006687164306640625
42 0.06972553580999374 0.05 0.006347416900098324
43 0.06796154379844666 0.05 0.006030311807990074
44 0.06626040488481522 0.05 0.005732202436774969
45 0.06462839990854263 0.05 0.005453309044241905
46 0.06305655837059021 0.05 0.0051912725903093815
47 0.061538636684417725 0.05 0.004944348707795143
48 0.06006959453225136 0.05 0.004711104091256857
49 0.058661334216594696 0.05 0.004492800682783127
50 0.057295724749565125 0.05 0.0042860545217990875
51 0.055975042283535004 0.05 0.0040907422080636024
52 0.05469157546758652 0.05 0.003905298188328743
53 0.05345726013183594 0.05 0.003731012111529708
54 0.052259061485528946 0.05 0.0035656318068504333
55 0.0511011928319931 0.05 0.0034093796275556087
56 0.049977049231529236 0.05 0.0032610278576612473
57 0.04888664186000824 0.05 0.0031202812679111958
58 0.04783204570412636 0.05 0.0029871100559830666
59 0.04680067300796509 0.05 0.002859680447727442
60 0.04580369591712952 0.05 0.0027391407638788223
61 0.044840626418590546 0.05 0.0026251652743667364
62 0.04390152171254158 0.05 0.002516358159482479
63 0.0429922491312027 0.05 0.002413201844319701
64 0.04210559278726578 0.05 0.0023146900348365307
65 0.041246987879276276 0.05 0.002221251605078578
66 0.04040670022368431 0.05 0.002131670480594039
67 0.0395951010286808 0.05 0.0020468977745622396
68 0.038804590702056885 0.05 0.0019659819081425667
69 0.03803112357854843 0.05 0.0018883899319916964
70 0.03728849068284035 0.05 0.0018153608543798327
71 0.03655669838190079 0.05 0.0017448063008487225
72 0.03584612160921097 0.05 0.0016776357078924775
73 0.03515858203172684 0.05 0.001613897504284978
74 0.034483689814805984 0.05 0.0015525325434282422
75 0.03382913023233414 0.05 0.001494152587838471
76 0.03319096937775612 0.05 0.0014383121160790324
77 0.03257157653570175 0.05 0.0013851311523467302
78 0.03196705877780914 0.05 0.001334192929789424
79 0.031377702951431274 0.05 0.001285451464354992
80 0.03080212138593197 0.05 0.001238723867572844
81 0.030242765322327614 0.05 0.0011941429693251848
82 0.02969471551477909 0.05 0.0011512552155181766
83 0.02916291169822216 0.05 0.0011103887809440494
84 0.028642432764172554 0.05 0.0010711076902225614
85 0.028132501989603043 0.05 0.0010333084501326084
86 0.027640346437692642 0.05 0.000997471041046083
87 0.027154499664902687 0.05 0.0009627132094465196
88 0.02668295055627823 0.05 0.0009295676136389375
89 0.026224849745631218 0.05 0.0008979234844446182
90 0.025774119421839714 0.05 0.0008673231932334602
91 0.02533276006579399 0.05 0.0008378732018172741
92 0.02490292489528656 0.05 0.0008096811361610889
93 0.02448769472539425 0.05 0.0007829050882719457
94 0.02407796122133732 0.05 0.0007569248555228114
95 0.02367619425058365 0.05 0.0007318753050640225
96 0.023285644128918648 0.05 0.0007079292554408312
97 0.022903934121131897 0.05 0.0006849099881947041
98 0.022531632333993912 0.05 0.0006628246628679335
99 0.022162970155477524 0.05 0.000641311751678586
tuning, 0, 0.0007268364424817264
tuning, 1, 0.0006657966296188533
tuning, 2, 0.0006308724405243993
tuning, 3, 0.0006119159515947104
tuning, 4, 0.0005742012290284038
tuning, 5, 0.0005531575297936797
tuning, 6, 0.000534314604010433
tuning, 7, 0.000507138785906136
tuning, 8, 0.0004978058859705925
tuning, 9, 0.00047482462832704186
tuning, 10, 0.0004591172037180513
tuning, 11, 0.00044985878048464656
tuning, 12, 0.00043193294550292194
tuning, 13, 0.0004182457341812551
tuning, 14, 0.00040739832911640406
tuning, 15, 0.0003972078557126224
tuning, 16, 0.0003881809243466705
tuning, 17, 0.00037784906453453004
tuning, 18, 0.0003698862565215677
tuning, 19, 0.00036203995114192367

 10%|███████████████████████████▌                                                                                                                                                                                                                                                        | 1/10 [00:48<07:18, 48.76s/it]
0, 0.1123598963022232
1, 0.1123598963022232
2, 0.10478775203227997
3, 0.09046938270330429
4, 0.0712452158331871
5, 0.05020013451576233
6, 0.03146938234567642
7, 0.02033030241727829
8, 0.014868568629026413
9, 0.012927531264722347
10, 0.012790551409125328
11, 0.013342529535293579
12, 0.01398182287812233
13, 0.014439189806580544
14, 0.014627385884523392
15, 0.014555811882019043
16, 0.01427022647112608
17, 0.013828307390213013
18, 0.013284137472510338
19, 0.012678839266300201
20, 0.012042000889778137
21, 0.011393969878554344
22, 0.01074916124343872
23, 0.01011611893773079
24, 0.009504545480012894
25, 0.008919543586671352
26, 0.00836878176778555
27, 0.007857000455260277
28, 0.007388043217360973
29, 0.006962933577597141
30, 0.006581793539226055
31, 0.0062421876937150955
32, 0.0059390924870967865
33, 0.005667769815772772
34, 0.005423353519290686
35, 0.005200413521379232
36, 0.004994924180209637
37, 0.004803420044481754
38, 0.004623625427484512
39, 0.004454393405467272
40, 0.0042948732152581215
41, 0.004144258331507444
42, 0.004002242349088192
43, 0.0038686664775013924
44, 0.003743569366633892
45, 0.003626922843977809
46, 0.003518833313137293
47, 0.0034187729470431805
48, 0.0033264202065765858
49, 0.0032414409797638655
50, 0.00316355237737298
51, 0.003092092229053378
52, 0.0030266004614531994
53, 0.0029664773028343916
54, 0.0029112163465470076
55, 0.0028603272512555122
56, 0.002813207684084773
57, 0.002769527491182089
58, 0.0027289490681141615
59, 0.0026911485474556684
60, 0.0026559261605143547
61, 0.002623090986162424
62, 0.0025924835354089737
63, 0.0025639052037149668
64, 0.0025372295640408993
65, 0.002512396080419421
66, 0.0024892156943678856
67, 0.0024675456807017326
68, 0.002447411185130477
69, 0.002428649691864848
70, 0.0024113026447594166
71, 0.0023951507173478603
72, 0.0023802032228559256
73, 0.0023663779720664024
74, 0.002353596268221736
75, 0.002341880928725004
76, 0.0023310775868594646
77, 0.0023211496882140636
78, 0.002312158700078726
79, 0.002303843153640628
80, 0.0022963646333664656
81, 0.0022895517759025097
82, 0.0022834655828773975
83, 0.002277966355904937
84, 0.0022730547934770584
85, 0.002268726471811533
86, 0.0022649564780294895
87, 0.002261632587760687
88, 0.0022587382700294256
89, 0.0022562993690371513
90, 0.0022542676888406277
91, 0.00225250655785203
92, 0.002251154277473688
93, 0.0022500462364405394
94, 0.0022491849958896637
95, 0.0022485763765871525
96, 0.002248135395348072
97, 0.0022478625178337097
98, 0.0022477000020444393
99, 0.0022476017475128174
0 2.717376947402954 0.05 8.139800071716309
1 2.5558085441589355 0.05 7.200630187988281
2 2.3845677375793457 0.05 6.268062591552734
3 2.190725326538086 0.05 5.290416717529297
4 1.9437496662139893 0.05 4.164804458618164
5 1.5790997743606567 0.05 2.74873685836792
6 1.1765990257263184 0.05 1.5260576009750366
7 0.8704720139503479 0.05 0.835263729095459
8 0.7088304162025452 0.05 0.5538582801818848
9 0.5970459580421448 0.05 0.3929429352283478
10 0.5068516135215759 0.05 0.28318852186203003
11 0.4346599876880646 0.05 0.20826356112957
12 0.3818093538284302 0.05 0.16069675981998444
13 0.34114331007003784 0.05 0.12828849256038666
14 0.3084460496902466 0.05 0.1048751026391983
15 0.2815188765525818 0.05 0.08736330270767212
16 0.25896358489990234 0.05 0.07392501085996628
17 0.23979514837265015 0.05 0.06338620185852051
18 0.22330710291862488 0.05 0.054969146847724915
19 0.2089984118938446 0.05 0.048150405287742615
20 0.19649530947208405 0.05 0.042561642825603485
21 0.1855083853006363 0.05 0.03793508559465408
22 0.1757906973361969 0.05 0.03406479209661484
23 0.16714909672737122 0.05 0.030797965824604034
24 0.15940017998218536 0.05 0.028008613735437393
25 0.1524047553539276 0.05 0.025604184716939926
26 0.14604465663433075 0.05 0.023511769250035286
27 0.14024102687835693 0.05 0.02168024331331253
28 0.13490229845046997 0.05 0.020061004906892776
29 0.12995438277721405 0.05 0.01861640438437462
30 0.12536384165287018 0.05 0.01732441410422325
31 0.12108670920133591 0.05 0.016162440180778503
32 0.11708123236894608 0.05 0.015110837295651436
33 0.11332017183303833 0.05 0.014155605807900429
34 0.10978022962808609 0.05 0.013285019434988499
35 0.1064441055059433 0.05 0.012489848770201206
36 0.10329616069793701 0.05 0.01176203228533268
37 0.10029768943786621 0.05 0.011089088395237923
38 0.097477987408638 0.05 0.010474348440766335
39 0.09478719532489777 0.05 0.009904060512781143
40 0.09222954511642456 0.05 0.009376788511872292
41 0.08980029076337814 0.05 0.008889338001608849
42 0.08748342841863632 0.05 0.008436562493443489
43 0.08527830243110657 0.05 0.008016616106033325
44 0.08316934108734131 0.05 0.007625011261552572
45 0.08115210384130478 0.05 0.0072596147656440735
46 0.0792209804058075 0.05 0.006918220315128565
47 0.07737218588590622 0.05 0.006599085405468941
48 0.07560496032238007 0.05 0.006301072891801596
49 0.07389762997627258 0.05 0.00601970124989748
50 0.07226720452308655 0.05 0.005757003091275692
51 0.07069550454616547 0.05 0.005509314127266407
52 0.069183848798275 0.05 0.005276225507259369
53 0.06772718578577042 0.05 0.005056383088231087
54 0.06632663309574127 0.05 0.004849420860409737
55 0.06497865170240402 0.05 0.004654310178011656
56 0.06366508454084396 0.05 0.004468036349862814
57 0.06240701675415039 0.05 0.004293197300285101
58 0.06118541583418846 0.05 0.004126765765249729
59 0.06000533327460289 0.05 0.003969114273786545
60 0.0588609017431736 0.05 0.0038191592320799828
61 0.057757582515478134 0.05 0.0036773248575627804
62 0.05668735131621361 0.05 0.003542307997122407
63 0.05564996972680092 0.05 0.0034138455521315336
64 0.054637063294649124 0.05 0.0032907025888562202
65 0.05365961790084839 0.05 0.0031740162521600723
66 0.052708886563777924 0.05 0.0030625390354543924
67 0.05179430916905403 0.05 0.002957182005047798
68 0.05089275911450386 0.05 0.002855130471289158
69 0.0500224344432354 0.05 0.0027583136688917875
70 0.04917353019118309 0.05 0.002665488049387932
71 0.048348937183618546 0.05 0.0025768422055989504
72 0.047555986791849136 0.05 0.0024930117651820183
73 0.04676489904522896 0.05 0.0024107599165290594
74 0.04600431025028229 0.05 0.002332980278879404
75 0.045266225934028625 0.05 0.0022587208077311516
76 0.044542346149683 0.05 0.002187057165428996
77 0.043834466487169266 0.05 0.0021180950570851564
78 0.043152082711458206 0.05 0.0020526619628071785
79 0.042472101747989655 0.05 0.001988481031730771
80 0.041820403188467026 0.05 0.001927926205098629
81 0.041181690990924835 0.05 0.0018694865284487605
82 0.04055473953485489 0.05 0.001812997623346746
83 0.03994877263903618 0.05 0.0017592229414731264
84 0.039346832782030106 0.05 0.0017066070577129722
85 0.03876844421029091 0.05 0.001656802254728973
86 0.03819727152585983 0.05 0.0016083428636193275
87 0.03764227777719498 0.05 0.0015619450714439154
88 0.037087582051754 0.05 0.0015162506606429815
89 0.03656229004263878 0.05 0.001473603886552155
90 0.03603239730000496 0.05 0.0014311997219920158
91 0.03552226349711418 0.05 0.0013909618137404323
92 0.03502550348639488 0.05 0.0013523303205147386
93 0.03453641012310982 0.05 0.0013148258440196514
94 0.0340607687830925 0.05 0.0012788595631718636
95 0.03358263894915581 0.05 0.0012432073708623648
96 0.03313053399324417 0.05 0.0012099595041945577
97 0.03266768530011177 0.05 0.0011763883521780372
98 0.03222756087779999 0.05 0.0011449033627286553
99 0.03179359436035156 0.05 0.0011142771691083908
tuning, 0, 0.0023935881908982992
tuning, 1, 0.002287698443979025
tuning, 2, 0.0021942153107374907
tuning, 3, 0.002134778071194887
tuning, 4, 0.0020873008761554956
tuning, 5, 0.002045435830950737
tuning, 6, 0.0020065242424607277
tuning, 7, 0.0019694240763783455
tuning, 8, 0.0019320434657856822
tuning, 9, 0.0018980277236551046
tuning, 10, 0.001868175808340311
tuning, 11, 0.0018400161061435938
tuning, 12, 0.0018148677190765738
tuning, 13, 0.0017903882544487715
tuning, 14, 0.0017643498722463846
tuning, 15, 0.0017382719088345766
tuning, 16, 0.0017125261947512627
tuning, 17, 0.00168679840862751
tuning, 18, 0.0016623953124508262
tuning, 19, 0.0016383964102715254

 20%|███████████████████████████████████████████████████████▏                                                                                                                                                                                                                            | 2/10 [01:37<06:28, 48.57s/it]
0, 0.09775816649198532
1, 0.09775816649198532
2, 0.09261520206928253
3, 0.0827256590127945
4, 0.0690140649676323
5, 0.05310676246881485
6, 0.03751780092716217
7, 0.026797745376825333
8, 0.020150013267993927
9, 0.016250811517238617
10, 0.013919269666075706
11, 0.012371307238936424
12, 0.011173510923981667
13, 0.010127130895853043
14, 0.00916554220020771
15, 0.008280530571937561
16, 0.007480106316506863
17, 0.006769542582333088
18, 0.006148895248770714
19, 0.005614263471215963
20, 0.005163115449249744
21, 0.004792653024196625
22, 0.004497642163187265
23, 0.004268505610525608
24, 0.004090812988579273
25, 0.003947291523218155
26, 0.003819601610302925
27, 0.0036922728177160025
28, 0.0035553867928683758
29, 0.0034046180080622435
30, 0.0032402328215539455
31, 0.0030663684010505676
32, 0.0028890236280858517
33, 0.0027152940165251493
34, 0.002550076227635145
35, 0.002397026401013136
36, 0.0022582560777664185
37, 0.0021342369727790356
38, 0.0020242957398295403
39, 0.0019269920885562897
40, 0.001840517739765346
41, 0.0017633101670071483
42, 0.0016935234889388084
43, 0.001629711128771305
44, 0.0015705492114648223
45, 0.0015150936087593436
46, 0.0014625617768615484
47, 0.0014126147143542767
48, 0.0013650497421622276
49, 0.0013198554515838623
50, 0.0012770635075867176
51, 0.0012366564478725195
52, 0.0011987155303359032
53, 0.0011633969843387604
54, 0.0011305863736197352
55, 0.001100142952054739
56, 0.0010718894191086292
57, 0.0010455845622345805
58, 0.001021089032292366
59, 0.000998176634311676
60, 0.0009767183801159263
61, 0.0009566631051711738
62, 0.000937795965000987
63, 0.0009201897191815078
64, 0.0009036915726028383
65, 0.0008883285336196423
66, 0.0008739641634747386
67, 0.0008606432238593698
68, 0.0008481988916173577
69, 0.0008366422262042761
70, 0.0008259514579549432
71, 0.0008160718716681004
72, 0.0008069087634794414
73, 0.0007984726107679307
74, 0.0007906992686912417
75, 0.0007835793076083064
76, 0.0007770609809085727
77, 0.0007710884092375636
78, 0.0007656199741177261
79, 0.0007606673752889037
80, 0.0007561856764368713
81, 0.0007521683583036065
82, 0.0007485077949240804
83, 0.0007452547433786094
84, 0.0007423473289236426
85, 0.0007398120942525566
86, 0.0007375460118055344
87, 0.0007356050191447139
88, 0.000733934051822871
89, 0.0007325074402615428
90, 0.0007312741945497692
91, 0.0007302940357476473
92, 0.0007294857641682029
93, 0.0007288384949788451
94, 0.0007283531012944877
95, 0.0007279952988028526
96, 0.0007277374970726669
97, 0.0007275731186382473
98, 0.0007274976815097034
99, 0.0007274476229213178
0 2.5382723808288574 0.05 8.79018783569336
1 2.3841428756713867 0.05 7.7550811767578125
2 2.1843249797821045 0.05 6.509629249572754
3 1.8552806377410889 0.05 4.696139335632324
4 1.4324233531951904 0.05 2.7993972301483154
5 1.0299046039581299 0.05 1.4471571445465088
6 0.7638349533081055 0.05 0.7960141897201538
7 0.579253077507019 0.05 0.45778170228004456
