
  0%|                                                                                                                                                                                                                                                                                            | 0/10 [00:00<?, ?it/s]
0, 0.1364392638206482
1, 0.1364392638206482
2, 0.1297922283411026
3, 0.11694812774658203
4, 0.09893614053726196
5, 0.07756030559539795
6, 0.055496178567409515
7, 0.038769401609897614
8, 0.02703281119465828
9, 0.01946825161576271
10, 0.015013499185442924
11, 0.012621235102415085
12, 0.011441579088568687
13, 0.010877160355448723
14, 0.01055334135890007
15, 0.010261273011565208
16, 0.00989651121199131
17, 0.009427684359252453
18, 0.008864432573318481
19, 0.008234540931880474
20, 0.007574073504656553
21, 0.006915371865034103
22, 0.006289617158472538
23, 0.0057244738563895226
24, 0.00523395836353302
25, 0.004822980612516403
26, 0.0044888220727443695
27, 0.004223429597914219
28, 0.004013507626950741
29, 0.0038443277589976788
30, 0.003700513858348131
31, 0.00356909167021513
32, 0.0034393693786114454
33, 0.003304433776065707
34, 0.0031605695839971304
35, 0.003007106017321348
36, 0.0028458377346396446
37, 0.0026799533516168594
38, 0.0025134908501058817
39, 0.0023507867008447647
40, 0.0021956628188490868
41, 0.002051212824881077
42, 0.0019197713118046522
43, 0.0018022144213318825
44, 0.0016984890680760145
45, 0.0016076138708740473
46, 0.0015279402723535895
47, 0.00145755335688591
48, 0.001394349499605596
49, 0.0013363886391744018
50, 0.001282070530578494
51, 0.0012305479031056166
52, 0.0011811736039817333
53, 0.001133772893808782
54, 0.0010885498486459255
55, 0.0010456126183271408
56, 0.0010052005527541041
57, 0.0009675206383690238
58, 0.0009326176950708032
59, 0.0009002703591249883
60, 0.0008702589548192918
61, 0.0008422308601438999
62, 0.0008158326963894069
63, 0.0007908170809969306
64, 0.0007668663747608662
65, 0.0007438563625328243
66, 0.0007216988014988601
67, 0.0007004420040175319
68, 0.0006801427225582302
69, 0.0006609067204408348
70, 0.0006428423803299665
71, 0.0006259463261812925
72, 0.0006102368934080005
73, 0.0005956313107162714
74, 0.0005820778897032142
75, 0.0005694301216863096
76, 0.0005575672257691622
77, 0.000546398339793086
78, 0.0005357986083254218
79, 0.0005256910808384418
80, 0.0005160182481631637
81, 0.0005067258607596159
82, 0.000497842556796968
83, 0.0004893526202067733
84, 0.00048123084707185626
85, 0.000473485270049423
86, 0.00046608466072939336
87, 0.00045899784890934825
88, 0.0004522328672464937
89, 0.00044575007632374763
90, 0.0004395393771119416
91, 0.0004335646517574787
92, 0.0004278139676898718
93, 0.0004222814168315381
94, 0.0004169296007603407
95, 0.0004117600619792938
96, 0.000406741164624691
97, 0.0004018680192530155
98, 0.00039715072489343584
99, 0.00039256265154108405
100, 0.0003880854928866029
101, 0.0003837693657260388
102, 0.0003795781813096255
103, 0.00037550897104665637
104, 0.00037157590850256383
105, 0.00036774080945178866
106, 0.00036404182901605964
107, 0.0003604310331866145
108, 0.0003569160762708634
109, 0.0003534689312800765
110, 0.0003501078754197806
111, 0.00034682563273236156
112, 0.0003436148399487138
113, 0.000340472994139418
114, 0.0003373952058609575
115, 0.0003344076103530824
116, 0.000331472372636199
117, 0.00032860436476767063
118, 0.00032581048435531557
119, 0.0003230660513509065
120, 0.00032038416247814894
121, 0.0003177517210133374
122, 0.00031516223680227995
123, 0.0003126306110061705
124, 0.0003101433103438467
125, 0.00030770234297960997
126, 0.00030530840740539134
127, 0.0003029594081453979
128, 0.0003006577608175576
129, 0.000298399681923911
130, 0.00029618266853503883
131, 0.0002939984551630914
132, 0.0002918835962191224
133, 0.0002897839876823127
134, 0.0002877181104850024
135, 0.0002856887294910848
136, 0.00028370507061481476
137, 0.00028173893224447966
138, 0.000279824947938323
139, 0.0002779370406642556
140, 0.00027607654919847846
141, 0.00027425060397945344
142, 0.0002724538207985461
143, 0.00027069426141679287
144, 0.0002689616521820426
145, 0.0002672445843927562
146, 0.0002655755670275539
147, 0.0002639226149767637
148, 0.0002623051987029612
149, 0.00026071001775562763
150, 0.0002591355878394097
151, 0.0002575964608695358
152, 0.00025606935378164053
153, 0.0002545743191149086
154, 0.0002531060017645359
155, 0.0002516479871701449
156, 0.0002502179122529924
157, 0.00024880823912099004
158, 0.00024741742527112365
159, 0.000246049661654979
160, 0.00024469636264257133
161, 0.00024334857880603522
162, 0.00024203307111747563
163, 0.00024071556981652975
164, 0.00023943130508996546
165, 0.00023814702581148595
166, 0.00023689208319410682
167, 0.00023564024013467133
168, 0.00023440609220415354
169, 0.00023318015155382454
170, 0.00023197212431114167
171, 0.00023077381774783134
172, 0.0002295813465025276
173, 0.00022840918973088264
174, 0.0002272461715620011
175, 0.0002260911714984104
176, 0.00022494353470392525
177, 0.00022379981237463653
178, 0.0002226723008789122
179, 0.0002215433632954955
180, 0.0002204325865022838
181, 0.0002193442778661847
182, 0.0002182775060646236
183, 0.00021722575183957815
184, 0.00021617941092699766
185, 0.00021514735999517143
186, 0.00021413438662420958
187, 0.00021312669559847564
188, 0.0002121398429153487
189, 0.00021114657283760607
190, 0.00021017207473050803
191, 0.0002092226641252637
192, 0.00020826945547014475
193, 0.0002073460491374135
194, 0.00020643012248910964
195, 0.00020553692593239248
196, 0.00020465516718104482
197, 0.00020376977045089006
198, 0.00020291339023970068
199, 0.00020205594773869962
200, 0.0002012119221035391
201, 0.000200388312805444
202, 0.0001995675265789032
203, 0.00019875224097631872
204, 0.00019796198466792703
205, 0.0001971785386558622
206, 0.0001963990507647395
207, 0.00019563511887099594
208, 0.0001948735152836889
209, 0.00019412406254559755
210, 0.00019338708079885691
211, 0.00019265885930508375
212, 0.00019194127526134253
213, 0.00019123624952044338
214, 0.00019052991410717368
215, 0.00018984239432029426
216, 0.00018915822147391737
217, 0.00018847599858418107
218, 0.0001878124166978523
219, 0.000187149373232387
220, 0.00018650153651833534
221, 0.0001858599716797471
222, 0.00018521762103773654
223, 0.00018460393766872585
224, 0.0001839816104620695
225, 0.00018337505753152072
226, 0.00018277642084285617
227, 0.0001821822370402515
228, 0.00018159500905312598
229, 0.00018102178000845015
230, 0.00018044290482066572
231, 0.0001798917364794761
232, 0.00017933080380316824
233, 0.00017878103244584054
234, 0.00017823946836870164
235, 0.0001777028082869947
236, 0.00017716984439175576
237, 0.00017663941252976656
238, 0.0001761279854690656
239, 0.0001756137644406408
240, 0.00017510735779069364
241, 0.0001746010675560683
242, 0.00017411103181075305
243, 0.00017361983191221952
244, 0.00017313213902525604
245, 0.00017266515351366252
246, 0.0001721859152894467
247, 0.00017172055959235877
248, 0.00017125435988418758
249, 0.0001707983174128458
250, 0.00017034169286489487
251, 0.0001698934647720307
252, 0.00016945035895332694
253, 0.00016901313210837543
254, 0.00016857727314345539
255, 0.00016814986884128302
256, 0.0001677275140536949
257, 0.00016730486822780222
258, 0.00016689146286807954
259, 0.00016647783922962844
260, 0.00016607133147772402
261, 0.00016566459089517593
262, 0.0001652685459703207
263, 0.00016486691311001778
264, 0.00016448173846583813
265, 0.00016410101670771837
266, 0.00016371087986044586
267, 0.00016333715757355094
268, 0.0001629644975764677
269, 0.0001625861768843606
270, 0.0001622229756321758
271, 0.00016186200082302094
272, 0.00016149294970091432
273, 0.00016114283062051982
274, 0.00016078967018984258
275, 0.00016043803771026433
276, 0.0001600934047019109
277, 0.00015975264250300825
278, 0.00015940883895382285
279, 0.00015907215129118413
280, 0.0001587368024047464
281, 0.0001584159181220457
282, 0.00015808803436812013
283, 0.00015776774671394378
284, 0.00015744309348519892
285, 0.00015713022730778903
286, 0.00015681222430430353
287, 0.00015650100249331445
288, 0.00015619859914295375
289, 0.00015588555834256113
290, 0.00015558715676888824
291, 0.00015528895892202854
292, 0.00015498852008022368
293, 0.0001546851417515427
294, 0.0001543960242997855
295, 0.00015410705236718059
296, 0.00015382117999251932
297, 0.00015353652997873724
298, 0.00015325033746194094
299, 0.00015297168283723295
300, 0.00015268588322214782
301, 0.00015241553774103522
302, 0.0001521405065432191
303, 0.00015185812662821263
304, 0.00015159105532802641
305, 0.00015132622502278537
306, 0.00015105443890206516
307, 0.00015078696014825255
308, 0.00015051498485263437
309, 0.00015026000619400293
310, 0.00014999635459389538
311, 0.00014973548240959644
312, 0.0001494755269959569
313, 0.00014921624097041786
314, 0.00014895584899932146
315, 0.00014869950246065855
316, 0.0001484399545006454
317, 0.00014818256022408605
318, 0.0001479321508668363
319, 0.00014767797256354243
320, 0.0001474121236242354
321, 0.00014715638826601207
322, 0.00014689945965074003
323, 0.00014665158232674003
324, 0.00014639252913184464
325, 0.0001461501669837162
326, 0.00014590323553420603
327, 0.00014565890887752175
328, 0.00014541709970217198
329, 0.00014516638475470245
330, 0.0001449283881811425
331, 0.00014469424786511809
332, 0.0001444560766685754
333, 0.00014422141248360276
334, 0.00014398762141354382
335, 0.0001437515311408788
336, 0.00014352332800626755
337, 0.00014330301200971007
338, 0.00014307856326922774
339, 0.00014285874203778803
340, 0.00014264308265410364
341, 0.00014242331963032484
342, 0.0001422162022208795
343, 0.0001420125481672585
344, 0.0001418076135450974
345, 0.00014160583668854088
346, 0.0001414091675542295
347, 0.00014121380809228867
348, 0.00014102223212830722
349, 0.0001408392417943105
350, 0.00014065488358028233
351, 0.0001404777867719531
352, 0.00014030160673428327
353, 0.00014012816245667636
354, 0.00013996651978231966
355, 0.0001397944870404899
356, 0.00013963659876026213
357, 0.00013948148989584297
358, 0.00013931395369581878
359, 0.00013915587624069303
360, 0.00013900572957936674
361, 0.00013885810039937496
362, 0.00013871035480406135
363, 0.0001385675568599254
364, 0.000138419825816527
365, 0.00013827485963702202
366, 0.0001381465554004535
367, 0.00013800873421132565
368, 0.00013788057549390942
369, 0.0001377470325678587
370, 0.00013761859736405313
371, 0.000137488852487877
372, 0.0001373634731862694
373, 0.00013724295422434807
374, 0.00013711466453969479
375, 0.00013699638657271862
376, 0.0001368779776385054
377, 0.00013676345406565815
378, 0.00013665163714904338
379, 0.00013654133363161236
380, 0.00013643343118019402
381, 0.0001363295887131244
382, 0.0001362166367471218
383, 0.00013611532631330192
384, 0.00013600534293800592
385, 0.00013590748130809516
386, 0.00013581068196799606
387, 0.00013571647286880761
388, 0.00013562610547523946
389, 0.0001355272252112627
390, 0.0001354331470793113
391, 0.0001353396219201386
392, 0.00013525802933145314
393, 0.0001351663377135992
394, 0.00013508448319043964
395, 0.00013500009663403034
396, 0.0001349151280010119
397, 0.0001348291989415884
398, 0.00013475207379087806
399, 0.00013467101962305605
400, 0.0001346052304143086
401, 0.0001345283817499876
402, 0.00013445215881802142
403, 0.00013438065070658922
404, 0.0001343095354968682
405, 0.00013424005010165274
406, 0.00013417037553153932
407, 0.00013410105020739138
408, 0.00013403892808128148
409, 0.00013397628208622336
410, 0.00013391196262091398
411, 0.00013385407510213554
412, 0.00013379364099819213
413, 0.00013373469118960202
414, 0.0001336725545115769
415, 0.0001336210552835837
416, 0.00013356792624108493
417, 0.0001335145643679425
418, 0.00013346427294891328
419, 0.00013341233716346323
420, 0.00013336478150449693
421, 0.00013331275840755552
422, 0.0001332659157924354
423, 0.0001332218962488696
424, 0.00013317496632225811
425, 0.00013312912778928876
426, 0.00013308900815900415
427, 0.00013304929598234594
428, 0.0001330084487562999
429, 0.00013296888209879398
430, 0.00013292866060510278
431, 0.00013289673370309174
432, 0.000132856541313231
433, 0.00013281805149745196
434, 0.00013278276310302317
435, 0.00013275403762236238
436, 0.000132722343550995
437, 0.00013268888869788498
438, 0.0001326599158346653
439, 0.00013263136497698724
440, 0.0001326017954852432
441, 0.0001325714256381616
442, 0.00013254703662823886
443, 0.00013252095959614962
444, 0.00013249620678834617
445, 0.00013247161405161023
446, 0.00013245473382994533
447, 0.00013242456770967692
448, 0.00013239862164482474
449, 0.0001323799224337563
450, 0.00013236049562692642
451, 0.00013233987556304783
452, 0.00013232242781668901
453, 0.00013230103650130332
454, 0.00013228581519797444
455, 0.00013226325972937047
456, 0.00013225122529547662
457, 0.00013223374844528735
458, 0.0001322192547377199
459, 0.00013221031986176968
460, 0.00013219454558566213
461, 0.00013218009553384036
462, 0.00013216861407272518
463, 0.00013216285151429474
464, 0.00013215075887273997
465, 0.00013214262435212731
466, 0.00013213088095653802
467, 0.00013212118938099593
468, 0.00013211141049396247
469, 0.0001321037270827219
470, 0.00013209405005909503
471, 0.00013208664313424379
472, 0.0001320820301771164
473, 0.00013207268784753978
474, 0.00013206916628405452
475, 0.00013206344738136977
476, 0.00013205432333052158
477, 0.0001320504816249013
478, 0.00013204949209466577
479, 0.0001320426817983389
480, 0.00013203907292336226
481, 0.0001320374576607719
482, 0.00013203390699345618
483, 0.00013202893023844808
484, 0.00013202973059378564
485, 0.0001320235023740679
486, 0.0001320242154179141
487, 0.000132022934849374
488, 0.00013201948604546487
489, 0.000132017710711807
490, 0.0001320172450505197
491, 0.0001320196024607867
492, 0.00013201839465182275
493, 0.00013201682304497808
494, 0.00013201319961808622
495, 0.00013201455294620246
496, 0.00013201656111050397
497, 0.0001320133887929842
498, 0.00013201059482526034
499, 0.00013201485853642225
0 2.623617172241211 0.05 7.881303310394287
1 2.46268630027771 0.05 6.944088935852051
2 2.293924570083618 0.05 6.02497673034668
3 2.093679904937744 0.05 5.019006252288818
4 1.8243069648742676 0.05 3.810596466064453
5 1.4279096126556396 0.05 2.3345251083374023
6 0.9879235029220581 0.05 1.117490291595459
7 0.6630489826202393 0.05 0.5033711194992065
8 0.5336318016052246 0.05 0.32604727149009705
9 0.44360435009002686 0.05 0.22531427443027496
10 0.374668151140213 0.05 0.16072766482830048
11 0.32500341534614563 0.05 0.12094082683324814
12 0.28576400876045227 0.05 0.09350013732910156
13 0.2539243698120117 0.05 0.073825404047966
14 0.22852355241775513 0.05 0.059794194996356964
15 0.2085237354040146 0.05 0.04978610575199127
16 0.19262275099754333 0.05 0.042482711374759674
17 0.1796427220106125 0.05 0.036950163543224335
18 0.16875377297401428 0.05 0.03260648995637894
19 0.15939483046531677 0.05 0.029090125113725662
20 0.15122665464878082 0.05 0.02618507482111454
21 0.14398209750652313 0.05 0.023736359551548958
22 0.1374834030866623 0.05 0.021642012521624565
23 0.13160113990306854 0.05 0.01982971280813217
24 0.12624092400074005 0.05 0.018247250467538834
25 0.12133260071277618 0.05 0.016855908557772636
26 0.11680722236633301 0.05 0.01562199555337429
27 0.11260990053415298 0.05 0.01451945398002863
28 0.10871522128582001 0.05 0.013532493263483047
29 0.10509499907493591 0.05 0.012646232731640339
30 0.10169694572687149 0.05 0.01184166967868805
31 0.09850811213254929 0.05 0.011110691353678703
32 0.09552167356014252 0.05 0.010447225533425808
33 0.0927014872431755 0.05 0.009839443489909172
34 0.09003078192472458 0.05 0.009280665777623653
35 0.08750665932893753 0.05 0.008767570368945599
36 0.0851031243801117 0.05 0.008292550221085548
37 0.08282226324081421 0.05 0.007854007184505463
38 0.08064906299114227 0.05 0.007447247393429279
39 0.07856138795614243 0.05 0.007066679187119007
40 0.07657544314861298 0.05 0.006713920272886753
41 0.07466480135917664 0.05 0.006383060943335295
42 0.07284614443778992 0.05 0.0060758949257433414
43 0.07108640670776367 0.05 0.00578588992357254
44 0.069393590092659 0.05 0.005513607989996672
45 0.06775873154401779 0.05 0.005256875418126583
46 0.06620414555072784 0.05 0.005018425639718771
47 0.0646725744009018 0.05 0.004788917489349842
48 0.06323142349720001 0.05 0.004577865358442068
49 0.06180457025766373 0.05 0.00437359232455492
50 0.060440633445978165 0.05 0.004182684235274792
51 0.05911681428551674 0.05 0.004001466557383537
52 0.057832714170217514 0.05 0.003829519497230649
53 0.05658893287181854 0.05 0.0036665708757936954
54 0.055396292358636856 0.05 0.0035136507358402014
55 0.05422365292906761 0.05 0.003366469405591488
56 0.05309831723570824 0.05 0.0032281866297125816
57 0.05199431627988815 0.05 0.003095343243330717
58 0.05091724172234535 0.05 0.0029684300534427166
59 0.04990454390645027 0.05 0.0028515257872641087
60 0.04887916147708893 0.05 0.0027355493512004614
61 0.04791516438126564 0.05 0.002628712449222803
62 0.04694792255759239 0.05 0.0025236543733626604
63 0.04604126140475273 0.05 0.0024271218571811914
64 0.04513664171099663 0.05 0.002332682255655527
65 0.044263582676649094 0.05 0.002243315102532506
66 0.04342827945947647 0.05 0.0021594460122287273
67 0.042578116059303284 0.05 0.002075726166367531
68 0.04178990423679352 0.05 0.0019995849579572678
69 0.04099297523498535 0.05 0.0019240481778979301
70 0.04023734852671623 0.05 0.0018537696450948715
71 0.0394904650747776 0.05 0.0017855892656370997
72 0.03876475617289543 0.05 0.0017205653712153435
73 0.038051411509513855 0.05 0.0016578248469159007
74 0.037373192608356476 0.05 0.0015992543194442987
75 0.03669758886098862 0.05 0.0015419565606862307
76 0.03604386746883392 0.05 0.001487509929575026
77 0.03540107607841492 0.05 0.0014349278062582016
78 0.03477664291858673 0.05 0.0013847533846274018
79 0.034170035272836685 0.05 0.0013368661748245358
80 0.033586420118808746 0.05 0.0012915895786136389
81 0.03300085663795471 0.05 0.001246945932507515
82 0.03242982178926468 0.05 0.0012041657464578748
83 0.03188060224056244 0.05 0.0011637245770543814
84 0.03134119510650635 0.05 0.0011246779467910528
85 0.030812088400125504 0.05 0.0010870246915146708
86 0.03029804304242134 0.05 0.0010510568972676992
87 0.029794219881296158 0.05 0.0010163919068872929
88 0.029306231066584587 0.05 0.0009833702351897955
89 0.028821207582950592 0.05 0.0009510896052233875
90 0.02835266850888729 0.05 0.0009204178350046277
91 0.027901360765099525 0.05 0.0008913491619750857
92 0.027440568432211876 0.05 0.0008621509186923504
93 0.0270142313092947 0.05 0.0008355690515600145
94 0.02657528594136238 0.05 0.000808635784778744
95 0.02615782432258129 0.05 0.0007834302959963679
96 0.025741618126630783 0.05 0.0007586977444589138
97 0.025343123823404312 0.05 0.0007353894179686904
98 0.02494584582746029 0.05 0.0007125143310986459
99 0.024561552330851555 0.05 0.000690730637870729
tuning, 0, 0.00017738292808644474
tuning, 1, 0.00017738292808644474
tuning, 2, 0.00017566009773872793
tuning, 3, 0.00017279581516049802
tuning, 4, 0.00016916109598241746
tuning, 5, 0.00016506788961123675
tuning, 6, 0.00016057465109042823
tuning, 7, 0.00015586899826303124
tuning, 8, 0.00015113665722310543
tuning, 9, 0.00014675952843390405
tuning, 10, 0.00014259072486311197
tuning, 11, 0.00013881869381293654
tuning, 12, 0.0001357332366751507
tuning, 13, 0.00013279318227432668
tuning, 14, 0.00013040457270108163
tuning, 15, 0.00012783361307810992
tuning, 16, 0.00012571665865834802
tuning, 17, 0.00012332535698078573
tuning, 18, 0.00012132507254136726
tuning, 19, 0.00011916689982172102
tuning, 20, 0.00011750435078283772
tuning, 21, 0.00011570611968636513
tuning, 22, 0.00011406651174183935
tuning, 23, 0.00011203015310456976
tuning, 24, 0.00011018151417374611
tuning, 25, 0.00010851851402549073
tuning, 26, 0.00010679790284484625
tuning, 27, 0.0001053601736202836
tuning, 28, 0.0001037355832522735
tuning, 29, 0.00010227361781289801
tuning, 30, 0.00010080130596179515
tuning, 31, 9.947644866770133e-05
tuning, 32, 9.814617806114256e-05
tuning, 33, 9.669403516454622e-05
tuning, 34, 9.54374554567039e-05
