
  0%|                                                                                                                                                                                                                                                                                            | 0/10 [00:00<?, ?it/s]
0, 0.1364392638206482
1, 0.1364392638206482
2, 0.12979231774806976
3, 0.11694802343845367
4, 0.09893614053726196
5, 0.07756024599075317
6, 0.055496178567409515
7, 0.03877311199903488
8, 0.027045469731092453
9, 0.019489631056785583
10, 0.015038145706057549
11, 0.012640572153031826
12, 0.011447638273239136
13, 0.010865101590752602
14, 0.010523658245801926
15, 0.010215489193797112
16, 0.009841307997703552
17, 0.009367072954773903
18, 0.008805038407444954
19, 0.00818086601793766
20, 0.007529751863330603
21, 0.006880303379148245
22, 0.0062618437223136425
23, 0.005697047337889671
24, 0.005200968123972416
25, 0.004777959547936916
26, 0.004425418097525835
27, 0.004136768635362387
28, 0.003902135184034705
29, 0.003709015203639865
30, 0.00354524003341794
31, 0.003400734392926097
32, 0.0032658881973475218
33, 0.0031345642637461424
34, 0.0030030119232833385
35, 0.002868825104087591
36, 0.0027320976369082928
37, 0.002593479584902525
38, 0.0024547772482037544
39, 0.0023181696888059378
40, 0.002185921650379896
41, 0.0020598205737769604
42, 0.0019417045405134559
43, 0.0018322705291211605
44, 0.0017321030609309673
45, 0.0016413189005106688
46, 0.001559506868943572
47, 0.0014860471710562706
48, 0.001420245273038745
49, 0.001361220609396696
50, 0.001307906350120902
51, 0.0012596671003848314
52, 0.0012156086741015315
53, 0.0011752317659556866
54, 0.0011379040079191327
55, 0.0011033540358766913
56, 0.0010712970979511738
57, 0.00104139419272542
58, 0.0010135523043572903
59, 0.000987660139799118
60, 0.0009635578608140349
61, 0.0009412646177224815
62, 0.0009204738307744265
63, 0.0009013231610879302
64, 0.0008835992775857449
65, 0.0008672609692439437
66, 0.0008522102143615484
67, 0.0008383298991248012
68, 0.000825620605610311
69, 0.0008138547418639064
70, 0.0008030738099478185
71, 0.0007932324660941958
72, 0.0007841435144655406
73, 0.0007758233696222305
74, 0.0007682414725422859
75, 0.0007612928166054189
76, 0.0007549083675257862
77, 0.0007491222349926829
78, 0.0007438456523232162
79, 0.0007390761165879667
80, 0.0007347165374085307
81, 0.0007308074273169041
82, 0.0007273339433595538
83, 0.0007242233259603381
84, 0.0007214471697807312
85, 0.0007189586758613586
86, 0.0007168377633206546
87, 0.0007149694720283151
88, 0.0007133159670047462
89, 0.0007119822548702359
90, 0.0007108242134563625
91, 0.0007098756614141166
92, 0.0007090920116752386
93, 0.0007084738463163376
94, 0.0007080032373778522
95, 0.0007076748879626393
96, 0.0007074079476296902
97, 0.0007072702283039689
98, 0.0007071776199154556
99, 0.0007071465952321887
0 2.4191088676452637 0.05 7.640528678894043
1 2.2590584754943848 0.05 6.662964344024658
2 2.091581344604492 0.05 5.7116570472717285
3 1.8938263654708862 0.05 4.682663440704346
4 1.6141055822372437 0.05 3.4015469551086426
5 1.236234426498413 0.05 1.9953277111053467
6 0.804533839225769 0.05 0.8450865745544434
7 0.5749179720878601 0.05 0.4315432608127594
8 0.47208327054977417 0.05 0.290971040725708
9 0.39231428503990173 0.05 0.20094668865203857
10 0.33783403038978577 0.05 0.14901135861873627
11 0.2966808080673218 0.05 0.11491890251636505
12 0.2651834785938263 0.05 0.09181328862905502
13 0.2400849610567093 0.05 0.07525624334812164
14 0.21957668662071228 0.05 0.06294845044612885
15 0.20263895392417908 0.05 0.05361156165599823
16 0.1885131299495697 0.05 0.04639763385057449
17 0.17652906477451324 0.05 0.04068600386381149
18 0.16619069874286652 0.05 0.036060020327568054
19 0.15711869299411774 0.05 0.032230593264102936
20 0.1490623503923416 0.05 0.029010049998760223
21 0.14183712005615234 0.05 0.026265909895300865
22 0.13528236746788025 0.05 0.023894334211945534
23 0.12931634485721588 0.05 0.021833304315805435
24 0.12385659664869308 0.05 0.0200286116451025
25 0.11883967369794846 0.05 0.018438920378684998
26 0.11421778798103333 0.05 0.017032565549016
27 0.10994148254394531 0.05 0.015781044960021973
28 0.10597744584083557 0.05 0.01466356310993433
29 0.10228799283504486 0.05 0.013660352677106857
30 0.09884557873010635 0.05 0.012756368145346642
31 0.0956195816397667 0.05 0.011937305331230164
32 0.09258902072906494 0.05 0.01119261421263218
33 0.08974134922027588 0.05 0.010514721274375916
34 0.08704839646816254 0.05 0.009893139824271202
35 0.08449842780828476 0.05 0.009322014637291431
36 0.08207552134990692 0.05 0.00879508163779974
37 0.07977454364299774 0.05 0.008308855816721916
38 0.0775800570845604 0.05 0.007858013734221458
39 0.07548969238996506 0.05 0.0074402568861842155
40 0.07348316162824631 0.05 0.007049987092614174
41 0.07156592607498169 0.05 0.006686905398964882
42 0.0697314664721489 0.05 0.006348486058413982
43 0.06796201318502426 0.05 0.006030385382473469
44 0.06626345217227936 0.05 0.005732720717787743
45 0.06462802737951279 0.05 0.005453237798064947
46 0.06305772066116333 0.05 0.005191455129534006
47 0.06154164299368858 0.05 0.004944822750985622
48 0.06007105112075806 0.05 0.004711325280368328
49 0.05866358056664467 0.05 0.00449313735589385
50 0.05729221925139427 0.05 0.004285523202270269
51 0.05597434937953949 0.05 0.004090634640306234
52 0.05469517037272453 0.05 0.003905804827809334
53 0.05345568433403969 0.05 0.0037307864986360073
54 0.052264682948589325 0.05 0.003566393395885825
55 0.05110101029276848 0.05 0.003409349825233221
56 0.04997606948018074 0.05 0.003260894911363721
57 0.04888486489653587 0.05 0.0031200493685901165
58 0.047829221934080124 0.05 0.002986752428114414
59 0.04680156335234642 0.05 0.0028597842901945114
60 0.045807480812072754 0.05 0.0027395891956984997
61 0.044842615723609924 0.05 0.002625393681228161
62 0.04390078783035278 0.05 0.0025162699166685343
63 0.04299352318048477 0.05 0.002413340611383319
64 0.04210527613759041 0.05 0.0023146518506109715
65 0.04124632850289345 0.05 0.0022211770992726088
66 0.040408819913864136 0.05 0.0021318907383829355
67 0.03959539160132408 0.05 0.0020469247829169035
68 0.03880245238542557 0.05 0.0019657621160149574
69 0.03803180530667305 0.05 0.0018884544260799885
70 0.03728856146335602 0.05 0.0018153645796701312
71 0.03655768930912018 0.05 0.0017448982689529657
72 0.035847779363393784 0.05 0.0016777879791334271
73 0.035160988569259644 0.05 0.001614116132259369
74 0.03448448330163956 0.05 0.0015526016941294074
75 0.03383073955774307 0.05 0.001494292402639985
76 0.033190637826919556 0.05 0.0014382813824340701
77 0.03257465362548828 0.05 0.0013853905256837606
78 0.03196775168180466 0.05 0.0013342485763132572
79 0.03137675300240517 0.05 0.001285371370613575
80 0.030801288783550262 0.05 0.0012386549497023225
81 0.030241843312978745 0.05 0.0011940679978579283
82 0.029693640768527985 0.05 0.001151170115917921
83 0.029160652309656143 0.05 0.0011102149728685617
84 0.028642235323786736 0.05 0.0010710909264162183
85 0.028132449835538864 0.05 0.0010333030950278044
86 0.02764180488884449 0.05 0.000997574650682509
87 0.027157317847013474 0.05 0.0009629114647395909
88 0.026684239506721497 0.05 0.000929656031075865
89 0.026224475353956223 0.05 0.0008978963014669716
90 0.02577616088092327 0.05 0.0008674593409523368
91 0.025330837815999985 0.05 0.0008377446793019772
92 0.024902645498514175 0.05 0.000809661578387022
93 0.024486538022756577 0.05 0.0007828298257663846
94 0.024076590314507484 0.05 0.0007568373694084585
95 0.023677460849285126 0.05 0.0007319524302147329
96 0.02328425645828247 0.05 0.0007078436319716275
97 0.022903816774487495 0.05 0.0006849017809145153
98 0.022529341280460358 0.05 0.0006626887479797006
99 0.02216433361172676 0.05 0.0006413896335288882
100 0.021808193996548653 0.05 0.00062094337772578
101 0.021459322422742844 0.05 0.0006012354278936982
102 0.02111324667930603 0.05 0.0005819995421916246
103 0.020783642306923866 0.05 0.0005639698356389999
104 0.020452819764614105 0.05 0.0005461587570607662
105 0.020136594772338867 0.05 0.0005294008878991008
106 0.019822964444756508 0.05 0.0005130383651703596
107 0.0195149015635252 0.05 0.0004972162423655391
108 0.019214345142245293 0.05 0.00048201848403550684
109 0.018917864188551903 0.05 0.0004672580980695784
110 0.018631530925631523 0.05 0.0004532206221483648
111 0.018350234255194664 0.05 0.0004396385920699686
112 0.018072983250021935 0.05 0.00042645406210795045
113 0.017802752554416656 0.05 0.0004137965734116733
114 0.017537178471684456 0.05 0.00040154295857064426
115 0.017282383516430855 0.05 0.000389959808671847
116 0.01702306792140007 0.05 0.0003783452557399869
117 0.016774257645010948 0.05 0.0003673661849461496
118 0.016532650217413902 0.05 0.0003568597021512687
119 0.016292549669742584 0.05 0.00034656981006264687
120 0.016053568571805954 0.05 0.0003364773583598435
121 0.015824418514966965 0.05 0.00032694003311917186
122 0.015595934353768826 0.05 0.00031756702810525894
123 0.015376475639641285 0.05 0.00030869265901856124
124 0.015161356888711452 0.05 0.00030011573107913136
125 0.014944967813789845 0.05 0.0002916101075243205
126 0.01473346259444952 0.05 0.00028341461438685656
127 0.01453086081892252 0.05 0.00027567363576963544
128 0.014330919831991196 0.05 0.00026813946897163987
129 0.014130815863609314 0.05 0.0002607036440167576
130 0.013937688432633877 0.05 0.0002536261745262891
131 0.013745192438364029 0.05 0.00024666881654411554
132 0.013561136089265347 0.05 0.0002401069359621033
133 0.013373207300901413 0.05 0.00023349831462837756
134 0.013189936056733131 0.05 0.00022714227088727057
135 0.013016724027693272 0.05 0.0002212157123722136
136 0.012842725031077862 0.05 0.00021534113329835236
137 0.012671047821640968 0.05 0.0002096223906846717
138 0.012502986006438732 0.05 0.00020409864373505116
139 0.012336403131484985 0.05 0.00019869624520651996
140 0.012176643125712872 0.05 0.00019358322606422007
141 0.012014200910925865 0.05 0.00018845268641598523
142 0.011863639578223228 0.05 0.0001837589225033298
143 0.011703116819262505 0.05 0.0001788198424037546
144 0.011554275639355183 0.05 0.00017430026491638273
145 0.011402292177081108 0.05 0.00016974499158095568
146 0.011257803067564964 0.05 0.00016547023551538587
147 0.011111672967672348 0.05 0.00016120239160954952
148 0.010972785763442516 0.05 0.0001571977772982791
149 0.010828754864633083 0.05 0.00015309802256524563
150 0.010694264434278011 0.05 0.0001493187592132017
151 0.010563824325799942 0.05 0.000145698431879282
152 0.01042752992361784 0.05 0.0001419631007593125
153 0.010296879336237907 0.05 0.0001384279748890549
154 0.010171710513532162 0.05 0.00013508295523934066
155 0.01004339661449194 0.05 0.00013169637531973422
156 0.009918993338942528 0.05 0.00012845404853578657
157 0.009797521866858006 0.05 0.00012532711843959987
158 0.009675308130681515 0.05 0.00012221999350003898
159 0.009558433666825294 0.05 0.00011928504682146013
160 0.009443430230021477 0.05 0.00011643192556221038
161 0.009328329004347324 0.05 0.00011361099313944578
162 0.009213248267769814 0.05 0.00011082510172855109
163 0.009104780852794647 0.05 0.00010823096090462059
164 0.008996150456368923 0.05 0.00010566374112386256
165 0.008887422271072865 0.05 0.00010312505764886737
166 0.00878362637013197 0.05 0.00010073034354718402
167 0.008680775761604309 0.05 9.838516416493803e-05
168 0.008574153296649456 0.05 9.598316682968289e-05
169 0.008472221903502941 0.05 9.371458872919902e-05
170 0.008377940393984318 0.05 9.164043876808137e-05
171 0.008276043459773064 0.05 8.942482236307114e-05
172 0.008177850395441055 0.05 8.731540583539754e-05
173 0.008085107430815697 0.05 8.534619701094925e-05
174 0.007991082966327667 0.05 8.33726953715086e-05
175 0.00789614673703909 0.05 8.140350837493315e-05
176 0.007803021464496851 0.05 7.94946972746402e-05
177 0.00771467387676239 0.05 7.770478259772062e-05
178 0.007630557287484407 0.05 7.601951074320823e-05
179 0.007542268373072147 0.05 7.427053060382605e-05
180 0.007455131970345974 0.05 7.256433309521526e-05
181 0.0073701078072190285 0.05 7.09186278982088e-05
182 0.007289524655789137 0.05 6.937627767911181e-05
183 0.0072075542993843555 0.05 6.78247888572514e-05
184 0.007122585084289312 0.05 6.623504305025563e-05
185 0.007044465281069279 0.05 6.479010335169733e-05
186 0.006962975021451712 0.05 6.329978350549936e-05
187 0.0068874964490532875 0.05 6.19348866166547e-05
188 0.006809797137975693 0.05 6.054537516320124e-05
189 0.006736552342772484 0.05 5.92499491176568e-05
190 0.006658983416855335 0.05 5.789332135464065e-05
191 0.0065873973071575165 0.05 5.6655269872862846e-05
192 0.006516899447888136 0.05 5.5449116189265624e-05
193 0.006448386702686548 0.05 5.4289364925352857e-05
194 0.0063735125586390495 0.05 5.303594298311509e-05
195 0.006304190028458834 0.05 5.1888513553421944e-05
196 0.006236167624592781 0.05 5.077479363535531e-05
197 0.00617024814710021 0.05 4.970703230355866e-05
198 0.006104906089603901 0.05 4.865982919000089e-05
199 0.006035579368472099 0.05 4.7560944949509576e-05
200 0.005971328355371952 0.05 4.655373049899936e-05
201 0.005909333471208811 0.05 4.5592092646984383e-05
202 0.005844406317919493 0.05 4.459574120119214e-05
203 0.005783602595329285 0.05 4.367264045868069e-05
204 0.005723041482269764 0.05 4.276282561477274e-05
205 0.005662304349243641 0.05 4.185997386230156e-05
206 0.005601781886070967 0.05 4.09699059673585e-05
207 0.005547677632421255 0.05 4.0182319935411215e-05
208 0.005482410080730915 0.05 3.9242404454853386e-05
209 0.005425862967967987 0.05 3.843706508632749e-05
210 0.005372156854718924 0.05 3.767991438508034e-05
211 0.005314824171364307 0.05 3.6879951949231327e-05
212 0.005260609555989504 0.05 3.613139415392652e-05
213 0.005203321110457182 0.05 3.534873030730523e-05
214 0.005151186604052782 0.05 3.464392648311332e-05
215 0.005095877218991518 0.05 3.390396523172967e-05
216 0.005047796294093132 0.05 3.326719888718799e-05
217 0.004990503191947937 0.05 3.2516312785446644e-05
218 0.004943674895912409 0.05 3.190894130966626e-05
219 0.004891008138656616 0.05 3.1232688343152404e-05
220 0.004841035697609186 0.05 3.059772279812023e-05
221 0.004794647451490164 0.05 3.0014147341717035e-05
222 0.004745091777294874 0.05 2.939692058134824e-05
223 0.004698505159467459 0.05 2.8822523745475337e-05
224 0.004653239622712135 0.05 2.8269849281059578e-05
225 0.004603540524840355 0.05 2.7669197152135894e-05
226 0.004557369742542505 0.05 2.7116968340124004e-05
227 0.004511584527790546 0.05 2.657484947121702e-05
228 0.004465070553123951 0.05 2.6029701984953135e-05
229 0.0044216797687113285 0.05 2.552626028773375e-05
230 0.004378318786621094 0.05 2.5028068193932995e-05
231 0.004336840007454157 0.05 2.4556096832384355e-05
232 0.004290933720767498 0.05 2.403898542979732e-05
233 0.004254570696502924 0.05 2.3633283490198664e-05
234 0.004207765683531761 0.05 2.3116157535696402e-05
235 0.004166703671216965 0.05 2.266719820909202e-05
236 0.004125305917114019 0.05 2.2219021047931165e-05
237 0.004084720276296139 0.05 2.1783980628242716e-05
238 0.004045633599162102 0.05 2.1369074602262117e-05
239 0.004006480798125267 0.05 2.0957464585080743e-05
240 0.003967094235122204 0.05 2.0547438907669857e-05
241 0.003932381514459848 0.05 2.0189421775285155e-05
242 0.003890997264534235 0.05 1.976671046577394e-05
243 0.003851487999781966 0.05 1.93673276953632e-05
244 0.003817362245172262 0.05 1.902564508782234e-05
245 0.0037823671009391546 0.05 1.8678409105632454e-05
246 0.0037430718075484037 0.05 1.829232496675104e-05
247 0.003706775140017271 0.05 1.7939284589374438e-05
248 0.003673330880701542 0.05 1.7617028788663447e-05
249 0.003636088455095887 0.05 1.7261612811125815e-05
250 0.003605261677876115 0.05 1.6970168871921487e-05
251 0.0035702879540622234 0.05 1.6642519767628983e-05
252 0.0035409906413406134 0.05 1.6370508092222735e-05
253 0.0035029975697398186 0.05 1.6021098417695612e-05
254 0.0034707747399806976 0.05 1.5727706340840086e-05
255 0.0034389833454042673 0.05 1.5440902643604204e-05
256 0.003410924691706896 0.05 1.518996668892214e-05
257 0.0033739181235432625 0.05 1.4862151147099212e-05
258 0.003341970033943653 0.05 1.458202132198494e-05
259 0.003309620311483741 0.05 1.430108295608079e-05
260 0.003278173506259918 0.05 1.4030607417225838e-05
261 0.003250004490837455 0.05 1.3790515367873013e-05
262 0.0032171739730983973 0.05 1.3513308658730239e-05
263 0.003187610534951091 0.05 1.326609435636783e-05
264 0.0031638822983950377 0.05 1.3069328815618064e-05
265 0.0031306089367717505 0.05 1.279588195757242e-05
266 0.0031022189650684595 0.05 1.2564856660901569e-05
267 0.003073076717555523 0.05 1.2329895980656147e-05
268 0.003047378733754158 0.05 1.212454753840575e-05
269 0.0030169289093464613 0.05 1.1883455954375677e-05
270 0.0029993359930813313 0.05 1.1745266419893596e-05
271 0.0029639587737619877 0.05 1.146982867794577e-05
272 0.002936555538326502 0.05 1.1258720405749045e-05
273 0.002908646594733 0.05 1.1045732208003756e-05
274 0.0028872652910649776 0.05 1.0883935829042457e-05
275 0.002858270425349474 0.05 1.0666433809092268e-05
276 0.0028308823239058256 0.05 1.0462999853189103e-05
277 0.0028103559743613005 0.05 1.0311818186892197e-05
278 0.002783239586278796 0.05 1.0113785720022861e-05
279 0.0027622459456324577 0.05 9.961787327483762e-06
280 0.0027318368665874004 0.05 9.743660484673455e-06
281 0.002708424348384142 0.05 9.577364835422486e-06
282 0.002690293127670884 0.05 9.449564458918758e-06
283 0.0026660372968763113 0.05 9.279936421080492e-06
284 0.002636984456330538 0.05 9.078785296878777e-06
285 0.0026127093005925417 0.05 8.91240324563114e-06
286 0.0025954809971153736 0.05 8.79525214259047e-06
287 0.0025682165287435055 0.05 8.611441444372758e-06
288 0.0025441977195441723 0.05 8.451121175312437e-06
289 0.0025254918728023767 0.05 8.327306204591878e-06
290 0.002501900540664792 0.05 8.172457455657423e-06
291 0.0024799343664199114 0.05 8.02958311396651e-06
292 0.0024608054663985968 0.05 7.90618832979817e-06
293 0.0024360998068004847 0.05 7.748234565951861e-06
294 0.002416040515527129 0.05 7.621159966220148e-06
295 0.0023992431815713644 0.05 7.515554898418486e-06
296 0.002374486066401005 0.05 7.361253665294498e-06
297 0.002354459138587117 0.05 7.237605132104363e-06
298 0.0023351137060672045 0.05 7.1191589086083695e-06
299 0.0023158963304013014 0.05 7.002462552918587e-06
300 0.002294223289936781 0.05 6.872011908853892e-06
301 0.0022733937948942184 0.05 6.747794941475149e-06
302 0.0022576102055609226 0.05 6.654424396401737e-06
303 0.002240516245365143 0.05 6.554034371220041e-06
304 0.0022177835926413536 0.05 6.421713806048501e-06
305 0.0021992495749145746 0.05 6.314829988696147e-06
306 0.0021813276689499617 0.05 6.212329026311636e-06
307 0.0021666742395609617 0.05 6.129143912403379e-06
308 0.0021450286731123924 0.05 6.007292540743947e-06
309 0.002128224354237318 0.05 5.9135381889063865e-06
310 0.0021081678569316864 0.05 5.802604391647037e-06
311 0.002092714887112379 0.05 5.71784948988352e-06
312 0.0020715072751045227 0.05 5.602547389571555e-06
313 0.0020581891294568777 0.05 5.530738235393073e-06
314 0.0020410758443176746 0.05 5.4391480261983816e-06
315 0.002021343447268009 0.05 5.334488832886564e-06
316 0.0020115950610488653 0.05 5.283159680402605e-06
317 0.0019876013975590467 0.05 5.1578790589701384e-06
318 0.0019755118992179632 0.05 5.095324922876898e-06
319 0.0019553746096789837 0.05 4.991975856682984e-06
320 0.0019377721473574638 0.05 4.902504770143423e-06
321 0.0019231667974963784 0.05 4.828880264540203e-06
322 0.0019071402493864298 0.05 4.748734681925271e-06
323 0.0018979988526552916 0.05 4.70331951873959e-06
324 0.0018763361731544137 0.05 4.596570306603098e-06
325 0.001861088559962809 0.05 4.522167728282511e-06
326 0.0018432136857882142 0.05 4.435718437889591e-06
327 0.001838649739511311 0.05 4.4137786971987225e-06
328 0.0018147396622225642 0.05 4.2997312448278535e-06
329 0.00179833744186908 0.05 4.222357347316574e-06
330 0.0017862858949229121 0.05 4.165954578638775e-06
331 0.0017778666224330664 0.05 4.126776730117854e-06
332 0.001761582214385271 0.05 4.051523774251109e-06
