
  0%|                                                                                                                                                                                                                                                                                                                                                                              | 0/10 [00:00<?, ?it/s]
0, 0.1364392638206482
1, 0.1364392638206482
2, 0.12979237735271454
3, 0.11694802343845367
4, 0.098936066031456
5, 0.07756021618843079
6, 0.05549613758921623
7, 0.038773130625486374
8, 0.02704552933573723
9, 0.01948980800807476
10, 0.015038168989121914
11, 0.012640575878322124
12, 0.01144764106720686
13, 0.010865174233913422
14, 0.010523706674575806
15, 0.01021554321050644
16, 0.009841380640864372
17, 0.009367162361741066
18, 0.008805102668702602
19, 0.008181027136743069
20, 0.007529742084443569
21, 0.006880328059196472
22, 0.006261855363845825
23, 0.0056970505975186825
24, 0.005200948566198349
25, 0.004777941852807999
26, 0.0044253189116716385
27, 0.004136752337217331
28, 0.003902155440300703
29, 0.0037089711986482143
30, 0.003545193700119853
31, 0.003400710877031088
32, 0.003265898674726486
33, 0.003134582657366991
34, 0.0030029965564608574
35, 0.0028688479214906693
36, 0.002732135821133852
37, 0.002593457465991378
38, 0.0024547739885747433
39, 0.002318205311894417
40, 0.0021858890540897846
41, 0.002059844322502613
42, 0.001941701746545732
43, 0.0018322707619518042
44, 0.001732075004838407
45, 0.001641339622437954
46, 0.0015595117583870888
47, 0.0014860432129353285
48, 0.0014202487654983997
49, 0.0013612265465781093
50, 0.0013079401105642319
51, 0.0012596549931913614
52, 0.001215607044287026
53, 0.0011752283899113536
54, 0.0011378967901691794
55, 0.0011033958289772272
56, 0.001071303035132587
57, 0.00104140758048743
58, 0.0010135815246030688
59, 0.0009877089178189635
60, 0.0009635816677473485
61, 0.0009412624640390277
62, 0.0009204857051372528
63, 0.0009013242088258266
64, 0.0008836155757308006
65, 0.0008672563708387315
66, 0.0008522241259925067
67, 0.0008383218082599342
68, 0.0008256082655861974
69, 0.0008138637058436871
70, 0.0008031015167944133
71, 0.0007932329317554832
72, 0.0007841416518203914
73, 0.0007758396677672863
74, 0.0007682470022700727
75, 0.0007613053312525153
76, 0.0007549176807515323
77, 0.0007491284050047398
78, 0.000743860611692071
79, 0.0007390562677755952
80, 0.0007347484934143722
81, 0.0007308335043489933
82, 0.0007273491937667131
83, 0.0007242331048473716
84, 0.0007214406505227089
85, 0.0007189762545749545
86, 0.0007168370066210628
87, 0.0007149704615585506
88, 0.0007133231265470386
89, 0.0007119987858459353
90, 0.0007108621648512781
91, 0.0007098898058757186
92, 0.0007090963190421462
93, 0.0007084907847456634
94, 0.0007080025970935822
95, 0.0007076708134263754
96, 0.0007074293680489063
97, 0.0007072751177474856
98, 0.0007071680738590658
99, 0.0007071520085446537
0 2.419109344482422 0.05 7.640540599822998 0.7837148904800415
1 2.259061336517334 0.05 6.662988662719727 0.7295680046081543
2 2.0915770530700684 0.05 5.711639404296875 0.6783558130264282
3 1.8938207626342773 0.05 4.682640075683594 0.6386743783950806
4 1.614101529121399 0.05 3.401533842086792 0.6276549100875854
5 1.236243724822998 0.05 1.9953601360321045 0.639667809009552
6 0.8045563697814941 0.05 0.8451349139213562 0.667396068572998
7 0.5749203562736511 0.05 0.4315473437309265 0.6449406147003174
8 0.4720788896083832 0.05 0.2909659743309021 0.6273174285888672
9 0.3923184871673584 0.05 0.20095118880271912 0.6121760010719299
10 0.33781954646110535 0.05 0.14899873733520508 0.599590539932251
11 0.2966742217540741 0.05 0.11491391062736511 0.5905506610870361
12 0.26518815755844116 0.05 0.09181661903858185 0.5842859745025635
13 0.24007263779640198 0.05 0.075248584151268 0.5799262523651123
14 0.21956868469715118 0.05 0.06294393539428711 0.5767791271209717
15 0.20264548063278198 0.05 0.05361507087945938 0.5745255947113037
16 0.1885145604610443 0.05 0.046398382633924484 0.5729361176490784
17 0.17652401328086853 0.05 0.040683720260858536 0.5718677043914795
18 0.16619190573692322 0.05 0.03606058657169342 0.5711981058120728
19 0.15711824595928192 0.05 0.032230444252491 0.5708581209182739
20 0.1490698903799057 0.05 0.029013019055128098 0.5707805752754211
21 0.14183072745800018 0.05 0.026263568550348282 0.5708667039871216
22 0.13528363406658173 0.05 0.023894809186458588 0.571090817451477
23 0.12931430339813232 0.05 0.02183263748884201 0.5714243650436401
24 0.12385294586420059 0.05 0.02002745494246483 0.5718071460723877
25 0.11884107440710068 0.05 0.01843937486410141 0.5722365975379944
26 0.1142159253358841 0.05 0.01703202724456787 0.5726741552352905
27 0.10993783921003342 0.05 0.015780016779899597 0.5731216669082642
28 0.1059756875038147 0.05 0.014663090929389 0.5735604763031006
29 0.10228141397237778 0.05 0.013658609241247177 0.5739856362342834
30 0.09884405136108398 0.05 0.012755988165736198 0.5744007229804993
31 0.09561841189861298 0.05 0.01193702407181263 0.5747754573822021
32 0.09259240329265594 0.05 0.011193446815013885 0.575140118598938
33 0.08974111080169678 0.05 0.010514676570892334 0.5754762887954712
34 0.08704900741577148 0.05 0.00989328883588314 0.5757896900177002
35 0.08449734002351761 0.05 0.00932178646326065 0.576091468334198
36 0.08207731693983078 0.05 0.008795476518571377 0.5763764381408691
37 0.07977689057588577 0.025 0.00830935314297676 0.576627254486084
38 0.07758332788944244 0.025 0.007858684286475182 0.5768704414367676
39 0.07653192430734634 0.025 0.007647126447409391 0.5769814252853394
40 0.0755116194486618 0.025 0.0074445875361561775 0.5770843029022217
41 0.07450883090496063 0.025 0.007248172536492348 0.5771892070770264
42 0.07352234423160553 0.025 0.007057513110339642 0.577277421951294
43 0.07256439328193665 0.025 0.006874801591038704 0.5773776173591614
44 0.07162060588598251 0.025 0.006697134580463171 0.577466607093811
45 0.07069499790668488 0.025 0.0065251486375927925 0.5775662660598755
46 0.0697939544916153 0.025 0.00635987613350153 0.5776435136795044
47 0.06890757381916046 0.025 0.006199360825121403 0.577735960483551
48 0.0680403783917427 0.025 0.006044306792318821 0.5778230428695679
49 0.06718289107084274 0.025 0.005892917513847351 0.5778947472572327
50 0.0663498118519783 0.025 0.005747677758336067 0.5779711008071899
51 0.06552721560001373 0.025 0.00560604315251112 0.5780491232872009
52 0.06472529470920563 0.025 0.005469670053571463 0.5781213641166687
53 0.06393357366323471 0.0125 0.005336678121238947 0.578191876411438
54 0.06315538287162781 0.0125 0.005207553040236235 0.5782642364501953
55 0.0627732127904892 0.0125 0.005144719500094652 0.5783013105392456
56 0.06239775940775871 0.0125 0.005083361640572548 0.5783271193504333
57 0.0620233416557312 0.0125 0.005022539757192135 0.5783605575561523
58 0.06165226921439171 0.0125 0.004962622188031673 0.5783930420875549
59 0.061282966285943985 0.0125 0.004903347231447697 0.5784248113632202
60 0.0609184168279171 0.0125 0.004845183342695236 0.5784566402435303
61 0.060556720942258835 0.0125 0.00478781946003437 0.578492283821106
62 0.060195837169885635 0.0125 0.004730923566967249 0.5785075426101685
63 0.05984221398830414 0.0125 0.004675502888858318 0.5785484910011292
64 0.0594882071018219 0.0125 0.004620349034667015 0.5785708427429199
65 0.05913984030485153 0.0125 0.004566393326967955 0.5786014795303345
66 0.05879287049174309 0.0125 0.004512969404459 0.5786234140396118
67 0.05845240131020546 0.0125 0.004460851661860943 0.5786517262458801
68 0.058110788464546204 0.0125 0.004408863373100758 0.5786831378936768
69 0.05777273699641228 0.00625 0.00435771606862545 0.5787105560302734
70 0.05743226781487465 0.00625 0.0043065049685537815 0.5787394046783447
71 0.05726885050535202 0.00625 0.004282033070921898 0.5787456035614014
72 0.05710187926888466 0.00625 0.004257099702954292 0.5787645578384399
73 0.05694179981946945 0.00625 0.004233264364302158 0.5787761211395264
74 0.056774917989969254 0.00625 0.004208488389849663 0.5787825584411621
75 0.056612227112054825 0.00625 0.004184402525424957 0.5788012146949768
76 0.05644505098462105 0.00625 0.0041597275994718075 0.5788154602050781
77 0.05628575012087822 0.00625 0.004136279225349426 0.5788275003433228
78 0.05612397566437721 0.00625 0.004112537484616041 0.5788363218307495
79 0.055959638208150864 0.00625 0.00408848887309432 0.5788503885269165
80 0.055802516639232635 0.00625 0.004065562039613724 0.5788713097572327
81 0.055643659085035324 0.00625 0.004042447078973055 0.5788701176643372
82 0.0554826594889164 0.00625 0.004019089043140411 0.5788893699645996
83 0.055325064808130264 0.00625 0.0039962888695299625 0.5788962244987488
84 0.05516828969120979 0.00625 0.003973673097789288 0.5789186954498291
85 0.05500916391611099 0.003125 0.003950782585889101 0.5789303779602051
86 0.05485551431775093 0.003125 0.003928743302822113 0.5789400339126587
87 0.05477438494563103 0.003125 0.003917130641639233 0.5789506435394287
88 0.05469797924160957 0.003125 0.003906210185959935 0.5789549350738525
89 0.05462130531668663 0.003125 0.003895266680046916 0.5789554715156555
90 0.054543230682611465 0.003125 0.0038841385394334793 0.5789690017700195
91 0.05446500703692436 0.003125 0.003873006207868457 0.5789740085601807
92 0.054386939853429794 0.003125 0.0038619115948677063 0.5789802074432373
93 0.054314013570547104 0.003125 0.003851561341434717 0.578980565071106
94 0.054235246032476425 0.003125 0.003840398509055376 0.5789833068847656
95 0.05415818840265274 0.003125 0.003829493187367916 0.5789872407913208
96 0.054085150361061096 0.003125 0.003819171106442809 0.5789940357208252
97 0.05401046574115753 0.003125 0.0038086308632045984 0.5790069103240967
98 0.05393044650554657 0.003125 0.0037973534781485796 0.5790061354637146
99 0.05385566130280495 0.003125 0.0037868297658860683 0.5790128707885742

 10%|███████████████████████████████████▊                                                                                                                                                                                                                                                                                                                                  | 1/10 [00:41<06:12, 41.35s/it]
0, 0.1123598963022232
1, 0.1123598963022232
2, 0.10478769242763519
3, 0.09046926349401474
4, 0.07124519348144531
5, 0.05020022392272949
6, 0.03146934136748314
7, 0.020330239087343216
8, 0.014868481084704399
9, 0.0129274632781744
10, 0.012790224514901638
11, 0.01334265898913145
12, 0.013981938362121582
13, 0.014439359307289124
14, 0.014627545140683651
15, 0.014555937610566616
16, 0.014270267449319363
17, 0.013828055933117867
18, 0.013284040614962578
19, 0.012678760103881359
20, 0.012041589245200157
21, 0.011393642984330654
22, 0.0107490923255682
23, 0.010116013698279858
24, 0.009504247456789017
25, 0.00891946628689766
26, 0.0083684753626585
27, 0.007856636308133602
28, 0.007387836929410696
29, 0.006962773390114307
30, 0.006581676658242941
31, 0.006242027040570974
32, 0.005938957445323467
33, 0.005667629651725292
34, 0.005423199385404587
35, 0.005200366023927927
36, 0.004994864109903574
37, 0.004803318530321121
38, 0.004623569082468748
39, 0.004454344045370817
40, 0.004294801503419876
41, 0.004144211299717426
42, 0.004002204164862633
43, 0.003868634579703212
44, 0.0037435288541018963
45, 0.003626889316365123
46, 0.0035187851171940565
47, 0.003418761072680354
48, 0.0033264111261814833
49, 0.003241413040086627
50, 0.0031635581981390715
51, 0.003092086873948574
52, 0.0030266083776950836
53, 0.0029664754401892424
54, 0.0029112244956195354
55, 0.002860330743715167
56, 0.0028132139705121517
57, 0.002769516548141837
58, 0.0027289465069770813
59, 0.0026911254972219467
60, 0.0026559247635304928
61, 0.0026230812072753906
62, 0.002592420671135187
63, 0.002563902409747243
64, 0.0025371972005814314
65, 0.002512336941435933
66, 0.0024891956709325314
67, 0.002467535901814699
68, 0.002447394421324134
69, 0.0024286641273647547
70, 0.0024112751707434654
71, 0.002395157003775239
72, 0.0023802057839930058
73, 0.002366387052461505
74, 0.0023535960353910923
75, 0.0023418692871928215
76, 0.002331047784537077
77, 0.0023211557418107986
78, 0.002312127035111189
79, 0.002303860615938902
80, 0.0022963490337133408
81, 0.002289541531354189
82, 0.0022834285628050566
83, 0.002277946099638939
84, 0.0022730566561222076
85, 0.002268716460093856
86, 0.0022649297025054693
87, 0.002261604182422161
88, 0.0022587201092392206
89, 0.0022562777157872915
90, 0.002254202961921692
91, 0.00225249701179564
92, 0.002251136116683483
93, 0.0022500534541904926
94, 0.0022491931449621916
95, 0.0022485824301838875
96, 0.0022480986081063747
97, 0.002247842261567712
98, 0.0022476958110928535
99, 0.002247608732432127
0 2.717360734939575 0.05 8.139725685119629 0.8106998205184937
1 2.5557949542999268 0.05 7.20057487487793 0.7657250165939331
2 2.3845582008361816 0.05 6.26802921295166 0.7249364256858826
3 2.190718650817871 0.05 5.290397644042969 0.6926329135894775
4 1.9437600374221802 0.05 4.164860248565674 0.6777499914169312
5 1.5791101455688477 0.05 2.7487802505493164 0.7054377794265747
6 1.1766142845153809 0.05 1.5261014699935913 0.757284939289093
7 0.8704741597175598 0.05 0.8352699875831604 0.777523398399353
8 0.708811342716217 0.05 0.5538299679756165 0.7666602730751038
9 0.5970345735549927 0.05 0.3929290473461151 0.7520245313644409
10 0.5068408250808716 0.05 0.2831772565841675 0.7369285821914673
11 0.4346677362918854 0.05 0.2082715630531311 0.7239696979522705
12 0.38180631399154663 0.05 0.16069462895393372 0.7128241658210754
13 0.3411475419998169 0.05 0.1282920241355896 0.7042450904846191
14 0.3084549307823181 0.05 0.10488142818212509 0.6975453495979309
15 0.2815215587615967 0.05 0.08736519515514374 0.6922954320907593
16 0.2589629888534546 0.05 0.07392485439777374 0.6881474852561951
17 0.2397933453321457 0.05 0.06338541954755783 0.6848659515380859
18 0.2233133763074875 0.05 0.054972387850284576 0.6822884678840637
19 0.20900428295135498 0.05 0.048153236508369446 0.6802669763565063
20 0.19649766385555267 0.05 0.04256277158856392 0.6786456108093262
21 0.1855052411556244 0.05 0.037933893501758575 0.6773185729980469
22 0.17579278349876404 0.05 0.034065693616867065 0.6762157082557678
23 0.16714802384376526 0.05 0.030797652900218964 0.6752851009368896
24 0.15939514338970184 0.05 0.028006920590996742 0.6744702458381653
25 0.1524125337600708 0.05 0.025606868788599968 0.6737969517707825
26 0.14605136215686798 0.05 0.02351398952305317 0.6731933355331421
27 0.1402420699596405 0.05 0.021680623292922974 0.6726871132850647
28 0.13489405810832977 0.05 0.020058605819940567 0.6722338199615479
29 0.12995396554470062 0.05 0.018616333603858948 0.6718500256538391
30 0.1253671944141388 0.05 0.01732538640499115 0.6715009212493896
31 0.12108591943979263 0.05 0.016162272542715073 0.6711944341659546
32 0.11708646267652512 0.05 0.015112229622900486 0.6709293127059937
33 0.11332274228334427 0.05 0.014156283810734749 0.6706820130348206
34 0.10978108644485474 0.05 0.013285265304148197 0.670454740524292
35 0.10644716769456863 0.05 0.01249060221016407 0.6702365875244141
36 0.10329628735780716 0.05 0.01176209095865488 0.6700666546821594
37 0.10029911249876022 0.05 0.011089432053267956 0.6699021458625793
38 0.09747731685638428 0.05 0.010474233888089657 0.6697218418121338
39 0.09478441625833511 0.05 0.009903507307171822 0.6695805788040161
40 0.09223184734582901 0.05 0.009377282112836838 0.6694259643554688
41 0.08980298787355423 0.05 0.008889896795153618 0.6692907810211182
42 0.08749095350503922 0.05 0.008438036777079105 0.6691476106643677
43 0.08528348058462143 0.05 0.008017610758543015 0.6690243482589722
44 0.08316945284605026 0.05 0.007625053636729717 0.6688991189002991
45 0.08115746080875397 0.05 0.00726059265434742 0.6687698364257812
46 0.07922440767288208 0.05 0.006918837316334248 0.6686627864837646
47 0.07737286388874054 0.05 0.006599218584597111 0.6685338020324707
48 0.07560795545578003 0.05 0.006301590241491795 0.6684237718582153
49 0.07389948517084122 0.05 0.00602002115920186 0.6683056354522705
50 0.0722639262676239 0.05 0.005756496451795101 0.6681813597679138
51 0.0706973671913147 0.05 0.005509619601070881 0.6680525541305542
52 0.06918584555387497 0.05 0.005276544950902462 0.6679446697235107
53 0.06773287057876587 0.05 0.005057246424257755 0.6678343415260315
54 0.06632678210735321 0.05 0.004849455785006285 0.667711079120636
55 0.06497308611869812 0.05 0.004653525538742542 0.6676069498062134
56 0.06366903334856033 0.05 0.004468602128326893 0.6674765348434448
57 0.062406718730926514 0.05 0.004293167497962713 0.6673643589019775
58 0.06118384748697281 0.05 0.004126565530896187 0.6672389507293701
59 0.06000664085149765 0.05 0.003969298675656319 0.6671275496482849
60 0.05886100232601166 0.05 0.003819182747974992 0.6670056581497192
61 0.05775817483663559 0.05 0.0036774100735783577 0.6668979525566101
62 0.0566876046359539 0.05 0.0035423492081463337 0.6667726039886475
63 0.055649466812610626 0.05 0.0034137931652367115 0.6666491627693176
64 0.05464272201061249 0.05 0.0032913931645452976 0.6665322184562683
65 0.053662627935409546 0.05 0.0031743808649480343 0.6664296984672546
66 0.052713848650455475 0.05 0.0030631241388618946 0.6663082242012024
67 0.05178895965218544 0.05 0.0029565789736807346 0.6661806702613831
68 0.05089152231812477 0.05 0.0028549996204674244 0.6660699844360352
69 0.05002223700284958 0.05 0.0027582990005612373 0.6659625768661499
70 0.049174267798662186 0.05 0.0026655751280486584 0.6658369302749634
71 0.04834948107600212 0.05 0.002576906932517886 0.6657253503799438
72 0.047551970928907394 0.05 0.0024925977922976017 0.66560959815979
73 0.04677040874958038 0.05 0.002411334775388241 0.6654931902885437
74 0.04600977897644043 0.05 0.0023335411678999662 0.6653714179992676
75 0.04526617377996445 0.05 0.002258721739053726 0.6652787327766418
76 0.04454190284013748 0.05 0.002187019679695368 0.6651514768600464
77 0.04383368417620659 0.05 0.0021180249750614166 0.6650474071502686
78 0.04315001890063286 0.05 0.0020524715073406696 0.6649379730224609
79 0.042474210262298584 0.05 0.0019886840600520372 0.6648199558258057
80 0.041826680302619934 0.05 0.001928510144352913 0.6647186279296875
81 0.04118066653609276 0.05 0.0018693985184654593 0.6646098494529724
82 0.04055675491690636 0.05 0.0018131827237084508 0.6645032167434692
83 0.039948541671037674 0.05 0.0017592073418200016 0.6643897294998169
84 0.039348337799310684 0.05 0.0017067419830709696 0.6642787456512451
85 0.03877190873026848 0.05 0.00165710283908993 0.6641832590103149
86 0.03819260746240616 0.05 0.0016079546185210347 0.6640793085098267
87 0.037641994655132294 0.05 0.001561925746500492 0.6639719009399414
88 0.037097249180078506 0.05 0.0015170451952144504 0.6638675332069397

 20%|███████████████████████████████████████████████████████████████████████▌                                                                                                                                                                                                                                                                                              | 2/10 [01:22<05:29, 41.15s/it]
90 0.036033641546964645 0.05 0.0014313024003058672 0.663673996925354
91 0.03552968055009842 0.05 0.001391546567901969 0.6635604500770569
92 0.03502260148525238 0.05 0.0013521097134798765 0.6634659767150879
93 0.03453511372208595 0.05 0.0013147308491170406 0.6633727550506592
94 0.03405700996518135 0.05 0.001278580748476088 0.6632697582244873
95 0.033587031066417694 0.05 0.0012435360113158822 0.6631699204444885
96 0.033121950924396515 0.05 0.0012093358673155308 0.663081169128418
97 0.03267376124858856 0.05 0.0011768292170017958 0.6629763245582581
98 0.03223270922899246 0.05 0.001145272282883525 0.6628851890563965
99 0.03179721534252167 0.05 0.0011145338648930192 0.662797212600708
inversion time : 39.99495196342468
0, 0.09775816649198532
1, 0.09775816649198532
2, 0.09261514246463776
3, 0.0827256441116333
4, 0.06901436299085617
5, 0.05310680717229843
6, 0.0375177301466465
7, 0.026797715574502945
