
  0%|                                                                                                                                                                                                                                                                                            | 0/10 [00:00<?, ?it/s]
0, 0.1364392638206482
1, 0.1364392638206482
2, 0.12979230284690857
3, 0.11694811284542084
4, 0.09893612563610077
5, 0.07756031304597855
6, 0.055496156215667725
7, 0.038773149251937866
8, 0.027045466005802155
9, 0.01948980800807476
10, 0.015038205310702324
11, 0.0126405730843544
12, 0.011447688564658165
13, 0.010865154676139355
14, 0.010523664765059948
15, 0.010215504094958305
16, 0.009841416031122208
17, 0.009367198683321476
18, 0.008805124089121819
19, 0.00818108581006527
20, 0.007529526948928833
21, 0.00688021257519722
22, 0.006261782255023718
23, 0.005697069689631462
24, 0.0052009932696819305
25, 0.004777924623340368
26, 0.004425357095897198
27, 0.004136836156249046
28, 0.003902099560946226
29, 0.0037089227698743343
30, 0.003545221406966448
31, 0.003400749061256647
32, 0.003265862353146076
33, 0.0031345803290605545
34, 0.0030029795598238707
35, 0.0028688691090792418
36, 0.002732166089117527
37, 0.002593451412394643
38, 0.0024547907523810863
39, 0.0023181303404271603
40, 0.0021859342232346535
41, 0.0020598515402525663
42, 0.001941705122590065
43, 0.0018323189578950405
44, 0.0017321060877293348
45, 0.0016413297271355987
46, 0.0015594994183629751
47, 0.0014860439114272594
48, 0.0014202588936313987
49, 0.0013612320180982351
50, 0.0013079255586490035
51, 0.0012596620945259929
52, 0.001215638592839241
53, 0.0011752371210604906
54, 0.0011379275238141418
55, 0.0011033974587917328
56, 0.0010712773073464632
57, 0.00104140501935035
58, 0.0010135830380022526
59, 0.000987695762887597
60, 0.000963559141382575
61, 0.00094126898329705
62, 0.0009204852394759655
63, 0.0009013382950797677
64, 0.0008835866465233266
65, 0.0008672813419252634
66, 0.0008522213320247829
67, 0.0008383474196307361
68, 0.0008256073924712837
69, 0.0008138631819747388
70, 0.0008031035540625453
71, 0.0007932567386887968
72, 0.0007841498591005802
73, 0.0007758400170132518
74, 0.0007682439754717052
75, 0.0007613002089783549
76, 0.0007548939320258796
77, 0.0007491145515814424
78, 0.0007438519969582558
79, 0.0007390755927190185
80, 0.0007347426144406199
81, 0.0007308247731998563
82, 0.000727334525436163
83, 0.0007242354331538081
84, 0.0007214475772343576
85, 0.0007189563475549221
86, 0.0007168231531977654
87, 0.0007149462471716106
88, 0.0007133271428756416
89, 0.0007119948859326541
90, 0.0007108454592525959
91, 0.0007098765927366912
92, 0.0007091237930580974
93, 0.0007084938697516918
94, 0.0007080234936438501
95, 0.0007076662732288241
96, 0.0007074205204844475
97, 0.0007072720909491181
98, 0.0007071776199154556
99, 0.0007071415311656892
0 2.4191083908081055 0.05 7.64055061340332
1 2.2590529918670654 0.05 6.662954330444336
2 2.0915720462799072 0.05 5.711625576019287
3 1.8938111066818237 0.05 4.682603359222412
4 1.614113688468933 0.05 3.40159273147583
5 1.2362449169158936 0.05 1.995368242263794
6 0.8045493960380554 0.05 0.845122218132019
7 0.5749142169952393 0.05 0.43153905868530273
8 0.47207510471343994 0.05 0.29096201062202454
9 0.3923080563545227 0.05 0.20094096660614014
10 0.3378181755542755 0.05 0.14899787306785583
11 0.29668092727661133 0.05 0.11491937935352325
12 0.26517391204833984 0.05 0.09180696308612823
13 0.24007068574428558 0.05 0.07524754106998444
14 0.21956762671470642 0.05 0.0629434660077095
15 0.20263315737247467 0.05 0.053608670830726624
16 0.18851013481616974 0.05 0.04639630764722824
17 0.17651988565921783 0.05 0.040681906044483185
18 0.16619084775447845 0.05 0.03606020659208298
19 0.1571156531572342 0.05 0.032229453325271606
20 0.14906460046768188 0.05 0.02901102416217327
21 0.14182674884796143 0.05 0.026262151077389717
22 0.13528555631637573 0.05 0.023895543068647385
23 0.1293134242296219 0.05 0.021832387894392014
24 0.1238541305065155 0.05 0.020027881488204002
25 0.11883656680583954 0.05 0.01843801885843277
26 0.1142100989818573 0.05 0.01703033037483692
27 0.10993752628564835 0.05 0.01577996276319027
28 0.10597582161426544 0.05 0.014663162641227245
29 0.10228343307971954 0.05 0.013659180141985416
30 0.09884115308523178 0.05 0.012755269184708595
31 0.0956210121512413 0.05 0.01193770207464695
32 0.09259048849344254 0.05 0.011193007230758667
33 0.08974078297615051 0.05 0.010514624416828156
34 0.08704809844493866 0.05 0.009893105365335941
35 0.08449771255254745 0.05 0.009321890771389008
36 0.08207613229751587 0.05 0.008795242756605148
37 0.07977695763111115 0.05 0.008309384807944298
38 0.07758057117462158 0.05 0.007858144119381905
39 0.07548729330301285 0.05 0.007439807523041964
40 0.07348810136318207 0.05 0.007050957530736923
41 0.07157085090875626 0.05 0.006687847897410393
42 0.06973104923963547 0.05 0.006348432041704655
43 0.06795921176671982 0.05 0.006029908545315266
44 0.06626266241073608 0.05 0.005732601508498192
45 0.06462974846363068 0.05 0.0054535456001758575
46 0.0630527213215828 0.05 0.005190649069845676
47 0.06153614819049835 0.05 0.004943956155329943
48 0.06007389351725578 0.05 0.004711786285042763
49 0.05865843966603279 0.05 0.004492365755140781
50 0.05729331448674202 0.05 0.004285701550543308
51 0.05597091093659401 0.05 0.0040901461616158485
52 0.05469720438122749 0.05 0.0039061084389686584
53 0.053457655012607574 0.05 0.0037310735788196325
54 0.0522581972181797 0.05 0.003565519815310836
55 0.05110451579093933 0.05 0.0034098289906978607
56 0.04997679963707924 0.05 0.0032610013149678707
57 0.04888491332530975 0.05 0.0031200656667351723
58 0.04782890900969505 0.05 0.0029867233242839575
59 0.04679965227842331 0.05 0.0028595600742846727
60 0.0458063930273056 0.05 0.0027394676581025124
61 0.04484051838517189 0.05 0.0026251571252942085
62 0.04390411078929901 0.05 0.0025166592095047235
63 0.04299115389585495 0.05 0.0024130831006914377
64 0.042108163237571716 0.05 0.0023149773478507996
65 0.041244298219680786 0.05 0.0022209659218788147
66 0.040407564491033554 0.05 0.002131765242666006
67 0.03959652781486511 0.05 0.002047048881649971
68 0.03880312293767929 0.05 0.001965836388990283
69 0.03803301602602005 0.05 0.0018885809695348144
70 0.03728518635034561 0.05 0.0018150419928133488
71 0.036555252969264984 0.05 0.0017446712590754032
72 0.035849448293447495 0.05 0.0016779496800154448
73 0.035158801823854446 0.05 0.0016139205545186996
74 0.034486446529626846 0.05 0.001552783651277423
75 0.033833567053079605 0.05 0.0014945468865334988
76 0.03319293633103371 0.05 0.001438485225662589
77 0.03257012367248535 0.05 0.0013850098475813866
78 0.031964704394340515 0.05 0.001333998516201973
79 0.03137386590242386 0.05 0.0012851388892158866
80 0.03080235980451107 0.05 0.0012387451715767384
81 0.030239587649703026 0.05 0.0011938940733671188
82 0.029697004705667496 0.05 0.0011514347279444337
83 0.029162708669900894 0.05 0.0011103752767667174
84 0.0286431722342968 0.05 0.0010711647337302566
85 0.028131838887929916 0.05 0.001033261651173234
86 0.027638019993901253 0.05 0.0009973046835511923
87 0.027155274525284767 0.05 0.0009627697290852666
88 0.02668394148349762 0.05 0.0009296382777392864
89 0.02622424066066742 0.05 0.0008978833211585879
90 0.02577141486108303 0.05 0.0008671426912769675
91 0.02533387951552868 0.05 0.0008379487553611398
92 0.02490614354610443 0.05 0.0008098918478935957
93 0.024486901238560677 0.05 0.0007828557281754911
94 0.02407865785062313 0.05 0.0007569698500446975
95 0.02367682009935379 0.05 0.0007319152355194092
96 0.023286156356334686 0.05 0.0007079615606926382
97 0.02290365844964981 0.05 0.0006848946213722229
98 0.022530848160386086 0.05 0.0006627795519307256
99 0.022165710106492043 0.05 0.0006414714735001326
tuning, 0, 0.0007268543122336268
tuning, 1, 0.0007268543122336268
tuning, 2, 0.0006866399198770523
tuning, 3, 0.0006336241494864225
tuning, 4, 0.0006030949880369008
tuning, 5, 0.0005799619830213487
tuning, 6, 0.000565929978620261
tuning, 7, 0.0006203472148627043
tuning, 8, 0.0008934106444939971
tuning, 9, 0.0008887693984434009
tuning, 10, 0.00047533956239931285
tuning, 11, 0.000999468844383955
tuning, 12, 0.0006275291088968515
tuning, 13, 0.0007213428616523743
tuning, 14, 0.0007207626476883888
tuning, 15, 0.0006191649008542299
tuning, 16, 0.0006279113586060703
tuning, 17, 0.0006105772918090224
tuning, 18, 0.00047398879542015493
tuning, 19, 0.0006389418267644942
tuning, 20, 0.0003545572981238365
tuning, 21, 0.000620469159912318
tuning, 22, 0.000337418750859797
tuning, 23, 0.0005486108711920679
tuning, 24, 0.000393709575291723
tuning, 25, 0.00038001578650437295
tuning, 26, 0.00041617831448093057
tuning, 27, 0.00031187274726107717
tuning, 28, 0.00037988380063325167
tuning, 29, 0.0002703210338950157
tuning, 30, 0.00033398799132555723
tuning, 31, 0.00025082528009079397
tuning, 32, 0.0003603732620831579
tuning, 33, 0.0002873966586776078
tuning, 34, 0.00025279834517277777
tuning, 35, 0.00028853549156337976
tuning, 36, 0.00022664903372060508
tuning, 37, 0.00025736907264217734
tuning, 38, 0.0002133576781488955
tuning, 39, 0.00027018639957532287
tuning, 40, 0.00020382300135679543
tuning, 41, 0.00022583446116186678
tuning, 42, 0.00023759843315929174
tuning, 43, 0.00018903834279626608
tuning, 44, 0.0002017649676417932
tuning, 45, 0.00017491969629190862
tuning, 46, 0.00017337792087346315
tuning, 47, 0.00016671439516358078
tuning, 48, 0.0001661221031099558
tuning, 49, 0.00016876024892553687
tuning, 50, 0.00015850986528676003
tuning, 51, 0.0001576301729073748
tuning, 52, 0.00014827409177087247
tuning, 53, 0.00014799210475757718
tuning, 54, 0.00014597244444303215
tuning, 55, 0.00014199390716385096
tuning, 56, 0.00014146167086437345
tuning, 57, 0.00013730445061810315
tuning, 58, 0.0001377040462102741
tuning, 59, 0.00013560806110035628
tuning, 60, 0.00013163653784431517
tuning, 61, 0.00013013044372200966
tuning, 62, 0.00012638422776944935
tuning, 63, 0.0001231813512276858
tuning, 64, 0.00012275957851670682
tuning, 65, 0.00012094534758944064
tuning, 66, 0.00011892442125827074
tuning, 67, 0.00011800597712863237
tuning, 68, 0.00011610882211243734
tuning, 69, 0.0001141212705988437
tuning, 70, 0.00011392216401873156
tuning, 71, 0.00011338522745063528
tuning, 72, 0.0001114916376536712
tuning, 73, 0.00011029338202206418
tuning, 74, 0.00010971933079417795
tuning, 75, 0.00010886196832871065
tuning, 76, 0.00010747539636213332
tuning, 77, 0.00010630115866661072
tuning, 78, 0.00010545508121140301
tuning, 79, 0.0001046725083142519
tuning, 80, 0.0001039567869156599
tuning, 81, 0.000103291284176521
tuning, 82, 0.00010281396680511534
tuning, 83, 0.00010232318891212344
tuning, 84, 0.00010185420978814363
tuning, 85, 0.00010143219697056338
tuning, 86, 0.0001010660344036296
tuning, 87, 0.00010077760089188814
tuning, 88, 0.0001006025995593518
tuning, 89, 0.00010045052476925775
tuning, 90, 0.00010032280988525599
tuning, 91, 0.00010020666377386078
tuning, 92, 0.00010011687118094414
tuning, 93, 0.00010003838542615995
tuning, 94, 9.991367551265284e-05
tuning, 95, 9.986726217903197e-05
tuning, 96, 9.980415779864416e-05
tuning, 97, 9.977854642784223e-05
tuning, 98, 9.975348075386137e-05
tuning, 99, 9.976864384952933e-05

 10%|███████████████████████████▌                                                                                                                                                                                                                                                        | 1/10 [01:20<12:03, 80.35s/it]
0, 0.1123598963022232
1, 0.1123598963022232
2, 0.10478818416595459
3, 0.09046956151723862
4, 0.07124528288841248
5, 0.05020006746053696
6, 0.03146932274103165
7, 0.020330268889665604
8, 0.014868518337607384
9, 0.012927799485623837
10, 0.012790295295417309
11, 0.013342111371457577
12, 0.013981550931930542
13, 0.01443907804787159
14, 0.014627437107264996
15, 0.01455590408295393
16, 0.014270596206188202
17, 0.01382872648537159
18, 0.013284524902701378
19, 0.01267927698791027
20, 0.012042264454066753
21, 0.011394068598747253
22, 0.010749150067567825
23, 0.010116261430084705
24, 0.009504366666078568
25, 0.008919596672058105
26, 0.008368794806301594
27, 0.00785697903484106
28, 0.007388114929199219
29, 0.006962999235838652
30, 0.006581904366612434
31, 0.006242269184440374
32, 0.005939196795225143
33, 0.0056678783148527145
34, 0.005423403345048428
35, 0.005200538318604231
36, 0.004994921386241913
37, 0.0048033976927399635
38, 0.004623627755790949
39, 0.004454411566257477
40, 0.00429487181827426
41, 0.004144265316426754
42, 0.004002207890152931
43, 0.0038686837069690228
44, 0.0037435570266097784
45, 0.003626963123679161
46, 0.0035188354086130857
47, 0.003418776672333479
48, 0.003326412755995989
49, 0.003241388825699687
50, 0.003163510700687766
51, 0.003092085476964712
52, 0.0030265673995018005
53, 0.0029664342291653156
54, 0.002911196555942297
55, 0.002860260894522071
56, 0.0028132013976573944
57, 0.0027695302851498127
58, 0.002728887600824237
59, 0.0026911068707704544
60, 0.0026559035759419203
61, 0.0026230996008962393
62, 0.0025924667716026306
63, 0.0025638993829488754
64, 0.0025372435338795185
65, 0.0025123439263552427
66, 0.0024891886860132217
67, 0.002467538695782423
68, 0.002447400474920869
69, 0.0024286615662276745
70, 0.0024112509563565254
71, 0.0023951197508722544
72, 0.0023801669012755156
73, 0.0023663360625505447
74, 0.0023535750806331635
75, 0.0023418422788381577
76, 0.0023310394026339054
77, 0.002321119187399745
78, 0.0023121065460145473
79, 0.002303824294358492
80, 0.002296307124197483
81, 0.0022894996218383312
82, 0.002283405279740691
83, 0.0022779451683163643
84, 0.0022730238270014524
85, 0.002268682699650526
86, 0.0022648698650300503
87, 0.002261573448777199
88, 0.0022587054409086704
89, 0.0022562413942068815
90, 0.0022541822399944067
91, 0.0022524665109813213
92, 0.00225108303129673
93, 0.0022500106133520603
94, 0.0022491603158414364
95, 0.0022485298104584217
96, 0.00224807346239686
97, 0.0022478080354630947
98, 0.0022476508747786283
99, 0.0022475887089967728
0 2.717379331588745 0.05 8.139799118041992
1 2.5558042526245117 0.05 7.200592994689941
2 2.3845691680908203 0.05 6.268057823181152
3 2.190737247467041 0.05 5.290463447570801
4 1.9437648057937622 0.05 4.164861679077148
5 1.5791107416152954 0.05 2.748769521713257
6 1.1766276359558105 0.05 1.526129126548767
7 0.8704617619514465 0.05 0.8352423906326294
8 0.7088096737861633 0.05 0.5538248419761658
9 0.5970455408096313 0.05 0.3929417133331299
10 0.5068634748458862 0.05 0.2832012176513672
11 0.4346563518047333 0.05 0.2082597017288208
12 0.38181638717651367 0.05 0.16070237755775452
13 0.3411392271518707 0.05 0.12828516960144043
14 0.3084511160850525 0.05 0.10487835854291916
15 0.28152385354042053 0.05 0.08736623078584671
16 0.2589614987373352 0.05 0.07392367720603943
17 0.23979471623897552 0.05 0.06338585913181305
18 0.22331348061561584 0.05 0.054972194135189056
19 0.20900548994541168 0.05 0.048153579235076904
20 0.19649668037891388 0.05 0.04256215691566467
21 0.18550801277160645 0.05 0.037934862077236176
22 0.17579324543476105 0.05 0.034065715968608856
23 0.16714432835578918 0.05 0.030796151608228683
24 0.1594005972146988 0.05 0.028008706867694855
25 0.15240460634231567 0.05 0.025604091584682465
26 0.14605388045310974 0.05 0.02351469360291958
27 0.14024300873279572 0.05 0.021680813282728195
28 0.13489213585853577 0.05 0.02005794644355774
29 0.1299578994512558 0.05 0.018617380410432816
30 0.1253681629896164 0.05 0.01732557639479637
31 0.12108638882637024 0.05 0.01616232469677925
32 0.11708419770002365 0.05 0.015111574903130531
33 0.11331739276647568 0.05 0.014154884032905102
34 0.10978001356124878 0.05 0.01328494492918253
35 0.1064438596367836 0.05 0.012489769607782364
36 0.10328847169876099 0.05 0.011760259047150612
37 0.10030396282672882 0.05 0.011090455576777458
38 0.09747572988271713 0.05 0.010473847389221191
39 0.09478823840618134 0.05 0.009904260747134686
40 0.09223335981369019 0.05 0.009377546608448029
41 0.08980190753936768 0.05 0.008889642544090748
42 0.08748693764209747 0.05 0.00843722466379404
43 0.08527851104736328 0.05 0.00801663938909769
44 0.08316458016633987 0.05 0.007624123711138964
45 0.08114833384752274 0.05 0.00725892698392272
46 0.07922054082155228 0.05 0.006918130908161402
47 0.07737182825803757 0.05 0.0065990108996629715
48 0.07560282200574875 0.05 0.006300704553723335
49 0.07389642298221588 0.05 0.006019494496285915
50 0.07226701080799103 0.05 0.005756962113082409
51 0.0706963986158371 0.05 0.0055094435811042786
52 0.06918637454509735 0.05 0.005276602692902088
53 0.06772775948047638 0.05 0.005056459456682205
54 0.06632630527019501 0.05 0.004849364049732685
55 0.06496825814247131 0.05 0.004652813076972961
56 0.06366497278213501 0.05 0.004468011669814587
57 0.06240168213844299 0.05 0.004292454570531845
58 0.061182815581560135 0.05 0.0041264076717197895
59 0.06000872701406479 0.05 0.0039695571176707745
60 0.05886365473270416 0.05 0.003819509642198682
61 0.05775586515665054 0.05 0.0036770994774997234
62 0.056685853749513626 0.05 0.0035421140491962433
63 0.05564463883638382 0.05 0.0034131850115954876
64 0.05463727191090584 0.05 0.0032907219137996435
65 0.053662315011024475 0.05 0.0031743294093757868
66 0.05271309241652489 0.05 0.003063022159039974
67 0.05179053172469139 0.05 0.0029567452147603035
68 0.05089587718248367 0.05 0.0028554750606417656
69 0.050020620226860046 0.05 0.002758108312264085
70 0.04917566850781441 0.05 0.002665715292096138
71 0.048349522054195404 0.05 0.00257690018042922
72 0.047549523413181305 0.05 0.0024923300370573997
73 0.046764761209487915 0.05 0.002410741290077567
74 0.046005405485630035 0.05 0.0023330864496529102
75 0.04526592046022415 0.05 0.002258686115965247
76 0.044543225318193436 0.05 0.002187139354646206
77 0.04383260756731033 0.05 0.0021179113537073135
78 0.04314626008272171 0.05 0.0020521043334156275
79 0.04247787594795227 0.05 0.001989018404856324
80 0.041820310056209564 0.05 0.0019279142143204808
81 0.041178204119205475 0.05 0.0018691665027290583
82 0.04056137800216675 0.05 0.0018135879654437304
83 0.039946526288986206 0.05 0.0017590217757970095
84 0.03934519737958908 0.05 0.001706461887806654
85 0.038769058883190155 0.05 0.0016568514984101057
86 0.03819070756435394 0.05 0.0016077870968729258
87 0.03763961046934128 0.05 0.0015617208555340767
88 0.03709592670202255 0.05 0.0015169305261224508
89 0.036553993821144104 0.05 0.0014729322865605354
90 0.03604153171181679 0.05 0.0014319228939712048
91 0.03552185371518135 0.05 0.0013909271219745278
92 0.03502180054783821 0.05 0.0013520418433472514
93 0.03454259783029556 0.05 0.001315294997766614
94 0.03405130282044411 0.05 0.0012781465193256736
95 0.03358488529920578 0.05 0.0012433716328814626
96 0.033127643167972565 0.05 0.001209745998494327
97 0.03266649320721626 0.05 0.0011763004586100578
98 0.032229434698820114 0.05 0.0011450344463810325
99 0.031793348491191864 0.05 0.0011142578441649675
tuning, 0, 0.002393480157479644
tuning, 1, 0.002393480157479644
tuning, 2, 0.0023256808053702116
tuning, 3, 0.002236205618828535
tuning, 4, 0.0021485788747668266
tuning, 5, 0.002096470445394516
tuning, 6, 0.0020438083447515965
tuning, 7, 0.001973947510123253
tuning, 8, 0.0018952942918986082
tuning, 9, 0.0018523556645959616
tuning, 10, 0.0018361553084105253
tuning, 11, 0.0018971035024151206
tuning, 12, 0.0019892114214599133
tuning, 13, 0.0018144368659704924
tuning, 14, 0.0015322052640840411
tuning, 15, 0.0018023550510406494
tuning, 16, 0.0014283962082117796
tuning, 17, 0.001535614486783743
tuning, 18, 0.0014152384828776121
tuning, 19, 0.001250077853910625
tuning, 20, 0.0012774316128343344
tuning, 21, 0.0011008663568645716
tuning, 22, 0.0011000173399224877
tuning, 23, 0.0013472577556967735
tuning, 24, 0.0010680519044399261
tuning, 25, 0.0013306973269209266
tuning, 26, 0.0011279305908828974
tuning, 27, 0.0015428818296641111
tuning, 28, 0.00135927670635283
tuning, 29, 0.001070260303094983
tuning, 30, 0.0010600817622616887
tuning, 31, 0.0008201489108614624
tuning, 32, 0.0008825476979836822
