
  0%|                                                                                                                                                                                                                                                                                            | 0/10 [00:00<?, ?it/s]
0, 0.1364392638206482
1, 0.1364392638206482
2, 0.12979237735271454
3, 0.11694803833961487
4, 0.09893610328435898
5, 0.07756020128726959
6, 0.05549606680870056
7, 0.03877311199903488
8, 0.02704547345638275
9, 0.019489724189043045
10, 0.015038175508379936
11, 0.012640571221709251
12, 0.011447678320109844
13, 0.010865196585655212
14, 0.010523694567382336
15, 0.01021565031260252
16, 0.009841364808380604
17, 0.009367188438773155
18, 0.008805126883089542
19, 0.008180906064808369
20, 0.0075297425501048565
21, 0.006880247034132481
22, 0.006261890288442373
23, 0.005697082728147507
24, 0.005201013758778572
25, 0.004777941852807999
26, 0.004425490275025368
27, 0.004136822652071714
28, 0.0039021316915750504
29, 0.00370896328240633
30, 0.0035452600568532944
31, 0.00340072438120842
32, 0.0032659266144037247
33, 0.003134561702609062
34, 0.003002988174557686
35, 0.00286887027323246
36, 0.002732096705585718
37, 0.0025934819132089615
38, 0.0024547427892684937
39, 0.002318132668733597
40, 0.0021858944091945887
41, 0.0020598438568413258
42, 0.0019417027942836285
43, 0.0018322772812098265
44, 0.0017320734914392233
45, 0.0016413067933171988
46, 0.0015594976721331477
47, 0.0014860298251733184
48, 0.0014202555175870657
49, 0.0013612167676910758
50, 0.0013079042546451092
51, 0.0012596785090863705
52, 0.0012156181037425995
53, 0.0011752513237297535
54, 0.0011379088973626494
55, 0.001103369751945138
56, 0.0010712963994592428
57, 0.001041400944814086
58, 0.001013570581562817
59, 0.0009876550175249577
60, 0.0009635603055357933
61, 0.0009412688086740673
62, 0.0009204562520608306
63, 0.0009013395756483078
64, 0.0008836024207994342
65, 0.0008672585245221853
66, 0.0008522143471054733
67, 0.0008383287931792438
68, 0.000825605122372508
69, 0.0008138625416904688
70, 0.0008031072793528438
71, 0.000793253246229142
72, 0.0007841456681489944
73, 0.0007758312276564538
74, 0.0007682527648285031
75, 0.0007612807676196098
76, 0.0007549022557213902
77, 0.0007491299766115844
78, 0.0007438487373292446
79, 0.000739065115340054
80, 0.0007347228820435703
81, 0.0007308312924578786
82, 0.0007273482042364776
83, 0.0007242251886054873
84, 0.0007214508368633687
85, 0.000718936906196177
86, 0.0007168346783146262
87, 0.0007149669690988958
88, 0.000713314104359597
89, 0.000711985572706908
90, 0.0007108456920832396
91, 0.0007098796777427197
92, 0.0007090982981026173
93, 0.00070849375333637
94, 0.0007080076029524207
95, 0.0007076606852933764
96, 0.0007074218010529876
97, 0.0007072907756082714
98, 0.0007071864674799144
99, 0.0007071499130688608
0 2.4191126823425293 0.05 7.640560626983643
1 2.2590577602386475 0.05 6.662967681884766
2 2.0915772914886475 0.05 5.711641311645508
3 1.8938195705413818 0.05 4.682633876800537
4 1.6141165494918823 0.05 3.401597023010254
5 1.236249327659607 0.05 1.995378017425537
6 0.8045499324798584 0.05 0.8451212644577026
7 0.5749047994613647 0.05 0.4315239191055298
8 0.472083181142807 0.05 0.29097121953964233
9 0.39230963587760925 0.05 0.20094209909439087
10 0.3378148674964905 0.05 0.1489945948123932
11 0.2966790199279785 0.05 0.11491763591766357
12 0.2651841938495636 0.05 0.09181386977434158
13 0.2400778979063034 0.05 0.07525189220905304
14 0.21956805884838104 0.05 0.06294357776641846
15 0.2026374340057373 0.05 0.05361080914735794
16 0.1885083019733429 0.05 0.046395301818847656
17 0.17652656137943268 0.05 0.04068489372730255
18 0.16618284583091736 0.05 0.03605665639042854
19 0.15712255239486694 0.05 0.03223221004009247
20 0.14906762540340424 0.05 0.02901213802397251
21 0.14183089137077332 0.05 0.026263626292347908
22 0.13527852296829224 0.05 0.023893002420663834
23 0.1293167620897293 0.05 0.02183346636593342
24 0.1238502487540245 0.05 0.02002657949924469
25 0.1188400462269783 0.05 0.018439054489135742
26 0.11421672254800797 0.05 0.017032265663146973
27 0.10994135588407516 0.05 0.01578102633357048
28 0.10597798228263855 0.05 0.014663727022707462
29 0.1022854670882225 0.05 0.013659694232046604
30 0.09884139150381088 0.05 0.012755302712321281
31 0.09561412781476974 0.05 0.011935953982174397
32 0.0925915539264679 0.05 0.01119324006140232
33 0.08974065631628036 0.05 0.010514570400118828
34 0.08704665303230286 0.05 0.009892754256725311
35 0.08449845016002655 0.05 0.0093220304697752
36 0.08207890391349792 0.05 0.008795816451311111
37 0.07977550476789474 0.05 0.008309065364301205
38 0.07758213579654694 0.05 0.007858442142605782
39 0.07548731565475464 0.05 0.0074397968128323555
40 0.07348640263080597 0.05 0.007050614804029465
41 0.07156912237405777 0.05 0.006687508895993233
42 0.06972988694906235 0.05 0.006348205730319023
43 0.06796129792928696 0.05 0.006030265241861343
44 0.06626170873641968 0.05 0.00573242362588644
45 0.06462834775447845 0.05 0.00545329786837101
46 0.06305468082427979 0.05 0.005190961062908173
47 0.061539217829704285 0.05 0.004944439046084881
48 0.06007606163620949 0.05 0.004712115507572889
49 0.05865968018770218 0.05 0.004492545034736395
50 0.05729048699140549 0.05 0.004285268485546112
51 0.05596991255879402 0.05 0.004089990630745888
52 0.05469529330730438 0.05 0.0039058267138898373
53 0.053458478301763535 0.05 0.003731180215254426
54 0.05226045846939087 0.05 0.003565820399671793
55 0.051096707582473755 0.05 0.003408779390156269
56 0.049974143505096436 0.05 0.0032606469467282295
57 0.04888821020722389 0.05 0.003120479639619589
58 0.047829389572143555 0.05 0.0029867764096707106
59 0.0467996746301651 0.05 0.0028595570474863052
60 0.045808788388967514 0.05 0.002739748451858759
61 0.04484262317419052 0.05 0.002625397639349103
62 0.04390134662389755 0.05 0.002516336739063263
63 0.042992137372493744 0.05 0.0024131876416504383
64 0.042105235159397125 0.05 0.0023146499879658222
65 0.04124657064676285 0.05 0.002221205737441778
66 0.04041045159101486 0.05 0.0021320651285350323
67 0.03959641233086586 0.05 0.0020470323506742716
68 0.03880222886800766 0.05 0.001965741626918316
69 0.03803335875272751 0.05 0.0018886104226112366
70 0.03728557378053665 0.05 0.001815075520426035
71 0.03655669465661049 0.05 0.0017448047874495387
72 0.03584521636366844 0.05 0.001677549909800291
73 0.035160474479198456 0.05 0.0016140707302838564
74 0.03448374941945076 0.05 0.0015525373164564371
75 0.03383227065205574 0.05 0.0014944293070584536
76 0.03319437429308891 0.05 0.001438606297597289
77 0.032569196075201035 0.05 0.0013849277747794986
78 0.031964316964149475 0.05 0.0013339635916054249
79 0.03137511759996414 0.05 0.0012852384243160486
80 0.030801478773355484 0.05 0.0012386715970933437
81 0.030241820961236954 0.05 0.001194067532196641
82 0.02969404309988022 0.05 0.0011512023629620671
83 0.029162736609578133 0.05 0.0011103746946901083
84 0.028642132878303528 0.05 0.0010710846399888396
85 0.028134716674685478 0.05 0.0010334707330912352
86 0.027638209983706474 0.05 0.0009973164414986968
87 0.027152467519044876 0.05 0.0009625685634091496
88 0.02668282575905323 0.05 0.0009295584750361741
89 0.026223670691251755 0.05 0.000897842226549983
90 0.025771455839276314 0.05 0.0008671434479765594
91 0.025333093479275703 0.05 0.000837894796859473
92 0.024906698614358902 0.05 0.0008099261322058737
93 0.024489600211381912 0.05 0.0007830264512449503
94 0.02407608926296234 0.05 0.0007568066939711571
95 0.023677067831158638 0.05 0.0007319289725273848
96 0.02328494004905224 0.05 0.0007078859489411116
97 0.0229023564606905 0.05 0.0006848152261227369
98 0.022527722641825676 0.05 0.0006625941605307162
99 0.022169142961502075 0.05 0.0006416686810553074
100 0.021809730678796768 0.05 0.000621031504124403
101 0.02145802602171898 0.05 0.0006011634832248092
102 0.02111716754734516 0.05 0.0005822163075208664
103 0.020780516788363457 0.05 0.0005638008005917072
104 0.020455144345760345 0.05 0.0005462835542857647
105 0.020134828984737396 0.05 0.000529308570548892
106 0.019823133945465088 0.05 0.0005130476201884449
107 0.019514741376042366 0.05 0.0004972086171619594
108 0.019215088337659836 0.05 0.0004820563772227615
109 0.018920110538601875 0.05 0.0004673695075325668
110 0.01863284967839718 0.05 0.0004532852617558092
111 0.018347416073083878 0.05 0.00043950395775027573
112 0.018072430044412613 0.05 0.00042642836342565715
113 0.017804818227887154 0.05 0.0004138930235058069
114 0.017536425963044167 0.05 0.00040150893619284034
115 0.017276912927627563 0.05 0.0003897133283317089
116 0.01702386885881424 0.05 0.0003783812280744314
117 0.01677454449236393 0.05 0.00036737919435836375
118 0.016530577093362808 0.05 0.00035677061532624066
119 0.016289150342345238 0.05 0.0003464255132712424
120 0.01606082171201706 0.05 0.00033678172621876
121 0.01582496240735054 0.05 0.00032696285052224994
122 0.015597289428114891 0.05 0.0003176225000061095
123 0.015374986454844475 0.05 0.0003086330834776163
124 0.01515471562743187 0.05 0.0002998531563207507
125 0.014948593452572823 0.05 0.00029175193049013615
126 0.01473921723663807 0.05 0.0002836362982634455
127 0.014529428444802761 0.05 0.0002756195899564773
128 0.014329508878290653 0.05 0.000268086907453835
129 0.014132808893918991 0.05 0.00026077742222696543
130 0.013935723342001438 0.05 0.000253554928349331
131 0.0137449000030756 0.05 0.0002466585719957948
132 0.01355971209704876 0.05 0.00024005680461414158
133 0.013373960740864277 0.05 0.00023352490097749978
134 0.013193580321967602 0.05 0.00022726802853867412
135 0.013015810400247574 0.05 0.00022118489141575992
136 0.012841898947954178 0.05 0.00021531363017857075
137 0.012669580988585949 0.05 0.00020957409287802875
138 0.012500731274485588 0.05 0.00020402521477080882
139 0.012338346801698208 0.05 0.00019875909492839128
140 0.012171381153166294 0.05 0.0001934161555254832
141 0.012016729451715946 0.05 0.00018853222718462348
142 0.011858225800096989 0.05 0.00018359144451096654
143 0.011701256968080997 0.05 0.00017876317724585533
144 0.011554202996194363 0.05 0.000174298242200166
145 0.01140376552939415 0.05 0.0001697890111245215
146 0.011264278553426266 0.05 0.0001656608219491318
147 0.01111300103366375 0.05 0.00016124109970405698
148 0.01097129937261343 0.05 0.0001571553439134732
149 0.010831248015165329 0.05 0.0001531687012175098
150 0.010691273957490921 0.05 0.00014923543494660407
151 0.01056030672043562 0.05 0.00014560160343535244
152 0.010432060807943344 0.05 0.00014208666107151657
153 0.010298026725649834 0.05 0.00013845897046849132
154 0.010171486996114254 0.05 0.00013507716357707977
155 0.010044238530099392 0.05 0.0001317185815423727
156 0.00991985946893692 0.05 0.00012847661855630577
157 0.009797916747629642 0.05 0.0001253373484360054
158 0.009674621745944023 0.05 0.00012220274948049337
159 0.009559985250234604 0.05 0.00011932390043511987
160 0.00944431684911251 0.05 0.00011645392078207806
161 0.009326190687716007 0.05 0.00011355900642229244
162 0.00921416562050581 0.05 0.00011084729339927435
163 0.009107138961553574 0.05 0.00010828714584931731
164 0.008994393981993198 0.05 0.0001056226174114272
165 0.008886795490980148 0.05 0.00010311063670087606
166 0.008784618228673935 0.05 0.00010075319733005017
167 0.00868059229105711 0.05 9.838112600846216e-05
168 0.008575859479606152 0.05 9.602145291864872e-05
169 0.008475236594676971 0.05 9.378138929605484e-05
170 0.008373096585273743 0.05 9.1534573584795e-05
171 0.008273771032691002 0.05 8.937582606449723e-05
172 0.008180279284715652 0.05 8.736737800063565e-05
173 0.00808546133339405 0.05 8.535375673091039e-05
174 0.00798700749874115 0.05 8.328776311827824e-05
175 0.007901431992650032 0.05 8.151258225552738e-05
176 0.007805523928254843 0.05 7.954577449709177e-05
177 0.007717173546552658 0.05 7.775522681185976e-05
178 0.007632994558662176 0.05 7.606815779581666e-05
179 0.007542076054960489 0.05 7.426681986544281e-05
180 0.007453290745615959 0.05 7.252858631545678e-05
181 0.007375017274171114 0.05 7.101321534719318e-05
182 0.007286370731890202 0.05 6.931633106432855e-05
183 0.007205485831946135 0.05 6.778592796763405e-05
184 0.007124918047338724 0.05 6.627852417295799e-05
185 0.007045341189950705 0.05 6.480628508143127e-05
186 0.006964453030377626 0.05 6.33267336525023e-05
187 0.006890466436743736 0.05 6.198837945703417e-05
188 0.00680980971083045 0.05 6.0545648011611775e-05
189 0.006737054791301489 0.05 5.9258847613818944e-05
190 0.006658625323325396 0.05 5.788715134258382e-05
191 0.0065986355766654015 0.05 5.6848799431463704e-05
192 0.006517119240015745 0.05 5.545291423914023e-05
193 0.0064436206594109535 0.05 5.420919114840217e-05
194 0.006372653413563967 0.05 5.302169665810652e-05
195 0.006302485242486 0.05 5.1860504754586145e-05
196 0.006240136921405792 0.05 5.0839506002375856e-05
197 0.006168448831886053 0.05 4.967809945810586e-05
198 0.006102771498262882 0.05 4.862585774390027e-05
199 0.006032466422766447 0.05 4.751195592689328e-05
200 0.005974145606160164 0.05 4.659772093873471e-05
201 0.005908066872507334 0.05 4.557260399451479e-05
202 0.005848794709891081 0.05 4.4662785512628034e-05
203 0.0057838670909404755 0.05 4.367667861515656e-05
204 0.00572555884718895 0.05 4.2800493247341365e-05
205 0.005663204472512007 0.05 4.18733325204812e-05
206 0.005601136479526758 0.05 4.096051270607859e-05
207 0.0055435593239963055 0.05 4.0122726204572245e-05
208 0.005486763082444668 0.05 3.9304788515437394e-05
209 0.005432102829217911 0.05 3.852556619676761e-05
210 0.005369869060814381 0.05 3.764787470572628e-05
211 0.005318094976246357 0.05 3.692540121846832e-05
212 0.005260209087282419 0.05 3.612593354773708e-05
213 0.005206248722970486 0.05 3.5388555261306465e-05
214 0.005150339566171169 0.05 3.463257598923519e-05
215 0.005095724482089281 0.05 3.390196798136458e-05
216 0.0050426507368683815 0.05 3.319944516988471e-05
217 0.004993777256458998 0.05 3.25590226566419e-05
218 0.004940264392644167 0.05 3.186496178386733e-05
219 0.004889744333922863 0.05 3.121658301097341e-05
220 0.0048415809869766235 0.05 3.060465678572655e-05
221 0.004795786924660206 0.05 3.00284427794395e-05
222 0.0047455960884690285 0.05 2.940319973276928e-05
223 0.004697681870311499 0.05 2.8812453820137307e-05
224 0.004648372530937195 0.05 2.8210770324221812e-05
225 0.0046064164489507675 0.05 2.770380160654895e-05
226 0.004555980674922466 0.05 2.7100466468255036e-05
227 0.004510950297117233 0.05 2.6567406166577712e-05
228 0.004467078018933535 0.05 2.6053141482407227e-05
229 0.00442355964332819 0.05 2.5547993573127314e-05
230 0.00437715882435441 0.05 2.5014833227032796e-05
231 0.004331988748162985 0.05 2.4501216103089973e-05
232 0.004295245744287968 0.05 2.4087355996016413e-05
233 0.004249535501003265 0.05 2.3577404135721736e-05
234 0.004206565208733082 0.05 2.3102995328372344e-05
235 0.004167378414422274 0.05 2.2674561478197575e-05
236 0.004125882871448994 0.05 2.222525654360652e-05
237 0.004085193388164043 0.05 2.178904651373159e-05
238 0.004044783301651478 0.05 2.1360112441470847e-05
239 0.004007129929959774 0.05 2.096428033837583e-05
240 0.003967321012169123 0.05 2.0549803593894467e-05
241 0.003929428290575743 0.05 2.0159130144747905e-05
242 0.0038927695713937283 0.05 1.9784745745710097e-05
243 0.003855824936181307 0.05 1.9410988898016512e-05
244 0.003822216996923089 0.05 1.907408659462817e-05
245 0.0037780439015477896 0.05 1.863575744209811e-05
246 0.003745777066797018 0.05 1.8318793081562035e-05
247 0.003706802614033222 0.05 1.7939566532731988e-05
248 0.0036736908368766308 0.05 1.762050305842422e-05
249 0.0036368542350828648 0.05 1.7268906958634034e-05
250 0.003606756217777729 0.05 1.6984260582830757e-05
251 0.003573531284928322 0.05 1.6672785932314582e-05
252 0.0035358304157853127 0.05 1.6322846931871027e-05
253 0.003500825259834528 0.05 1.600124960532412e-05
254 0.003469898598268628 0.05 1.5719786460977048e-05
255 0.0034374042879790068 0.05 1.5426745449076407e-05
256 0.0034034145064651966 0.05 1.5123165212571621e-05
257 0.003373738145455718 0.05 1.4860581359243952e-05
258 0.0033407886512577534 0.05 1.4571727660950273e-05
259 0.003310269443318248 0.05 1.4306709090305958e-05
260 0.0032853498123586178 0.05 1.4092118362896144e-05
261 0.0032485765404999256 0.05 1.3778413631371222e-05
262 0.00321864802390337 0.05 1.3525709618988913e-05
263 0.003187081078067422 0.05 1.326170331594767e-05
264 0.003167196176946163 0.05 1.3096733709971886e-05
265 0.0031316857784986496 0.05 1.2804698599211406e-05
266 0.0031004222109913826 0.05 1.2550318388093729e-05
267 0.003072876948863268 0.05 1.2328306183917448e-05
268 0.0030520150903612375 0.05 1.2161479389760643e-05
269 0.003018967341631651 0.05 1.1899533092218917e-05
270 0.0029910022858530283 0.05 1.1680099305522162e-05
271 0.0029644882306456566 0.05 1.1473939593997784e-05
272 0.0029362300410866737 0.05 1.1256236575718503e-05
273 0.0029122871346771717 0.05 1.1073410860262811e-05
274 0.0028860836755484343 0.05 1.0875040061364416e-05
275 0.002858470194041729 0.05 1.0667936294339597e-05
276 0.0028331035282462835 0.05 1.0479436241439544e-05
277 0.0028075804002583027 0.05 1.0291470971424133e-05
278 0.002783308969810605 0.05 1.0114301403518766e-05
279 0.002755474764853716 0.05 9.913017493090592e-06
280 0.0027328503783792257 0.05 9.750901881488971e-06
281 0.0027079980354756117 0.05 9.574359864927828e-06
282 0.002686206717044115 0.05 9.420890819455963e-06
283 0.0026707162614911795 0.05 9.312548172601964e-06
284 0.002639112062752247 0.05 9.093449989450164e-06
285 0.0026155540253967047 0.05 8.93183005246101e-06
286 0.0025925859808921814 0.05 8.775652531767264e-06
287 0.0025689522735774517 0.05 8.616386367066298e-06
288 0.0025494680739939213 0.05 8.486178558086976e-06
289 0.0025245847646147013 0.05 8.321334462380037e-06
290 0.002503043506294489 0.05 8.1799353210954e-06
291 0.0024794943165034056 0.05 8.026741852518171e-06
292 0.002458640607073903 0.05 7.892293069744483e-06
293 0.002435853471979499 0.05 7.746675692033023e-06
294 0.0024171185214072466 0.05 7.627969807799673e-06
295 0.0023971989285200834 0.05 7.502761945943348e-06
296 0.002373915398493409 0.05 7.357724371104268e-06
297 0.002354817697778344 0.05 7.239817932713777e-06
298 0.0023373770527541637 0.05 7.1329732236335985e-06
299 0.00231576687656343 0.05 7.001687663432676e-06
300 0.002294277772307396 0.05 6.872346602904145e-06
301 0.0022730501368641853 0.05 6.7457631303113885e-06
302 0.002254819730296731 0.05 6.637991646130104e-06
303 0.002235108520835638 0.05 6.5224426180066075e-06
304 0.002218649024143815 0.05 6.426732852560235e-06
305 0.002202932955697179 0.05 6.336006663332228e-06
306 0.0021827789023518562 0.05 6.220603154361015e-06
307 0.0021603992208838463 0.05 6.093700903875288e-06
308 0.0021425513550639153 0.05 5.993430931994226e-06
309 0.002124084858223796 0.05 5.890562533750199e-06
310 0.0021070833317935467 0.05 5.796642199129565e-06
311 0.0020899076480418444 0.05 5.702525413653348e-06
312 0.002074229996651411 0.05 5.617290298687294e-06
313 0.002054580021649599 0.05 5.511364634003257e-06
314 0.0020377018954604864 0.05 5.421186415333068e-06
315 0.002035968005657196 0.05 5.411965048551792e-06
316 0.002004882786422968 0.05 5.2479663281701505e-06
317 0.0019883231725543737 0.05 5.1616316341096535e-06
318 0.001971644815057516 0.05 5.0754015319398604e-06
319 0.001954296138137579 0.05 4.986476142221363e-06
320 0.0019388690125197172 0.05 4.908061782771256e-06
321 0.0019224138231948018 0.05 4.825105861527845e-06
322 0.001906492281705141 0.05 4.745513251691591e-06
323 0.0018944191979244351 0.05 4.685600288212299e-06
324 0.0018777984660118818 0.05 4.603742127073929e-06
325 0.0018681486835703254 0.05 4.55654753750423e-06
326 0.0018452424556016922 0.05 4.445493232196895e-06
327 0.001830200431868434 0.05 4.373310730443336e-06
328 0.0018145282519981265 0.05 4.298733529140009e-06
329 0.0018125670030713081 0.05 4.289446223992854e-06
330 0.0017872006865218282 0.05 4.170226930000354e-06
331 0.0017716801958158612 0.05 4.098110366612673e-06
332 0.0017585728783160448 0.05 4.037697181047406e-06
