
  0%|                                                                                                                                                                                                                                                                                                                                                                              | 0/10 [00:00<?, ?it/s]
0, 0.1364392638206482
1, 0.1364392638206482
2, 0.1297922134399414
3, 0.11694826930761337
4, 0.09893614053726196
5, 0.07756029069423676
6, 0.05549612641334534
7, 0.038825612515211105
8, 0.027222251519560814
9, 0.019793011248111725
10, 0.015392916277050972
11, 0.012939495965838432
12, 0.011598161421716213
13, 0.010818280279636383
14, 0.01027650199830532
15, 0.009808167815208435
16, 0.009342338889837265
17, 0.008861741051077843
18, 0.008372616022825241
19, 0.007891821675002575
20, 0.007438122760504484
21, 0.007025708444416523
22, 0.006664011161774397
23, 0.006358574144542217
24, 0.00611046701669693
25, 0.005919351242482662
26, 0.005779813509434462
27, 0.005686306860297918
28, 0.0056315092369914055
29, 0.005606178194284439
0 2.512319564819336 0.05 7.140263557434082
1 2.3512160778045654 0.05 6.253881454467773
2 2.1823370456695557 0.05 5.387758731842041
3 1.9794716835021973 0.05 4.432646751403809
4 1.6754634380340576 0.05 3.1756632328033447
5 1.2964756488800049 0.05 1.9014862775802612
6 0.913098156452179 0.05 0.9431906342506409
7 0.6585558652877808 0.05 0.4906251132488251
8 0.5219094753265381 0.05 0.30814486742019653
9 0.42930784821510315 0.05 0.20849813520908356
10 0.3648175895214081 0.05 0.15056222677230835
11 0.31714382767677307 0.05 0.11378291249275208
12 0.2793525755405426 0.05 0.0882815346121788
13 0.25028854608535767 0.05 0.0708673894405365
14 0.22706054151058197 0.05 0.05832407623529434
15 0.20763590931892395 0.05 0.048771873116493225
16 0.19184470176696777 0.05 0.041635528206825256
17 0.17894606292247772 0.05 0.036225032061338425
18 0.1681361347436905 0.05 0.03198060020804405
19 0.15889663994312286 0.05 0.02856234833598137
20 0.15083515644073486 0.05 0.025737691670656204
21 0.1437101513147354 0.05 0.02336357906460762
22 0.13735030591487885 0.05 0.021341444924473763
23 0.13160967826843262 0.05 0.019594768062233925
24 0.12640120089054108 0.05 0.01807452365756035
25 0.12165331840515137 0.05 0.016742197796702385
26 0.11727333813905716 0.05 0.015558334067463875
27 0.11324111372232437 0.05 0.014506838284432888
28 0.10949206352233887 0.05 0.013562188483774662
29 0.1059943437576294 0.05 0.012709541246294975
30 0.10272712260484695 0.05 0.01193808764219284
31 0.09965422749519348 0.05 0.011234557256102562
32 0.096743144094944 0.05 0.010587778873741627
33 0.09400653839111328 0.05 0.009997250512242317
34 0.09139522910118103 0.05 0.009449560195207596
35 0.08891624957323074 0.05 0.008943896740674973
36 0.08654756844043732 0.05 0.008473723195493221
37 0.08429182320833206 0.05 0.008037766441702843
38 0.08213326334953308 0.05 0.007631372194737196
39 0.08007234334945679 0.05 0.007253199815750122
40 0.07809320092201233 0.05 0.006899077445268631
41 0.07619531452655792 0.05 0.006567816250026226
42 0.07436256855726242 0.05 0.006255661137402058
43 0.07260426878929138 0.05 0.005963330157101154
44 0.07091612368822098 0.05 0.005689242854714394
45 0.06928689777851105 0.05 0.005430836230516434
46 0.06771758198738098 0.05 0.005187610164284706
47 0.066196508705616 0.05 0.004957179538905621
48 0.06473781913518906 0.05 0.004741116426885128
49 0.06332236528396606 0.05 0.004536059685051441
50 0.0619586817920208 0.05 0.004342789761722088
51 0.060639888048172 0.05 0.004159884061664343
52 0.05936721712350845 0.05 0.003987106494605541
53 0.058129336684942245 0.05 0.003822568105533719
54 0.05693621560931206 0.05 0.003667260054498911
55 0.05577868968248367 0.05 0.0035196631215512753
56 0.054656434804201126 0.05 0.0033794583287090063
57 0.05356600880622864 0.05 0.003245959058403969
58 0.05250973626971245 0.05 0.003119206754490733
59 0.05148613825440407 0.05 0.0029987837187945843
60 0.05049724876880646 0.05 0.0028846953064203262
61 0.049525126814842224 0.05 0.0027746977284550667
62 0.04858697950839996 0.05 0.0026705721393227577
63 0.04767170548439026 0.05 0.0025709043256938457
64 0.04678213596343994 0.05 0.002475851448252797
65 0.04591424763202667 0.05 0.002384840976446867
66 0.04507359862327576 0.05 0.002298311796039343
67 0.044251948595047 0.05 0.0022152834571897984
68 0.04345310479402542 0.05 0.0021360244136303663
69 0.04267079010605812 0.05 0.0020598038099706173
70 0.041911523789167404 0.05 0.0019871534314006567
71 0.04116806015372276 0.05 0.0019172790925949812
72 0.04044656082987785 0.05 0.0018506646156311035
73 0.03974204882979393 0.05 0.0017867549322545528
74 0.039054255932569504 0.05 0.001725445268675685
75 0.03838127851486206 0.05 0.0016664925497025251
76 0.03772500902414322 0.05 0.001609989907592535
77 0.03708268329501152 0.05 0.001555631635710597
78 0.03645717725157738 0.05 0.001503594103269279
79 0.03584723174571991 0.05 0.0014537033857777715
80 0.03525067865848541 0.05 0.0014057222288101912
81 0.03466176614165306 0.05 0.0013591451570391655
82 0.03409223258495331 0.05 0.0013148473808541894
83 0.03353037312626839 0.05 0.0012718657962977886
84 0.0329892598092556 0.05 0.001231146277859807
85 0.0324501134455204 0.05 0.001191233517602086
86 0.0319288969039917 0.05 0.0011532733915373683
87 0.031416162848472595 0.05 0.0011165309697389603
88 0.030919045209884644 0.05 0.0010814752895385027
89 0.030429217964410782 0.05 0.0010474808514118195
90 0.02994474209845066 0.05 0.0010143916588276625
91 0.029477091506123543 0.05 0.0009829553309828043
92 0.02901630662381649 0.05 0.0009524644119665027
93 0.02856765314936638 0.05 0.0009232379961758852
94 0.028124118223786354 0.05 0.0008947924943640828
95 0.027691325172781944 0.05 0.0008674650453031063
96 0.02727014571428299 0.05 0.0008412777679041028
97 0.026853477582335472 0.05 0.0008157659322023392
98 0.02644539438188076 0.05 0.0007911605061963201
99 0.02604719065129757 0.05 0.0007675139349885285
100 0.025657888501882553 0.05 0.0007447428652085364
101 0.02527499571442604 0.05 0.0007226810557767749
102 0.024898098781704903 0.05 0.000701288809068501
103 0.02452506497502327 0.05 0.0006804321310482919
104 0.024165324866771698 0.05 0.0006606170209124684
105 0.02381601370871067 0.05 0.0006416565156541765
106 0.023471511900424957 0.05 0.0006232275045476854
107 0.023125745356082916 0.05 0.0006050008814781904
108 0.02279304899275303 0.05 0.0005877184448763728
109 0.022462818771600723 0.05 0.0005708119133487344
110 0.02214112877845764 0.05 0.0005545797757804394
111 0.021825937554240227 0.05 0.0005389026482589543
112 0.021513786166906357 0.05 0.0005235981661826372
113 0.021209310740232468 0.05 0.0005088825710117817
114 0.02091086283326149 0.05 0.0004946617991663516
115 0.020616982132196426 0.05 0.00048085558228194714
116 0.02033219113945961 0.05 0.00046766281593590975
117 0.020045196637511253 0.05 0.0004545536357909441
118 0.019769448786973953 0.05 0.0004421336925588548
119 0.01949850656092167 0.05 0.0004300978034734726
120 0.01922907494008541 0.05 0.0004182936972938478
121 0.018967803567647934 0.05 0.0004070039140060544
122 0.018710918724536896 0.05 0.0003960542962886393
123 0.018451066687703133 0.05 0.0003851301153190434
124 0.018204035237431526 0.05 0.00037488649832084775
125 0.017959440127015114 0.05 0.0003648799320217222
126 0.017719747498631477 0.05 0.0003552054113242775
127 0.017488913610577583 0.05 0.0003460111911408603
128 0.01725100353360176 0.05 0.00033666129456833005
129 0.01702793501317501 0.05 0.0003280110249761492
130 0.016799533739686012 0.05 0.00031927067902870476
131 0.01658204384148121 0.05 0.0003110574616584927
132 0.016359688714146614 0.05 0.00030277122277766466
133 0.016152698546648026 0.05 0.0002951580681838095
134 0.015936870127916336 0.05 0.00028732308419421315
135 0.015734462067484856 0.05 0.0002800711081363261
136 0.015528998337686062 0.05 0.0002728044055402279
137 0.015332753770053387 0.05 0.0002659529563970864
138 0.015134308487176895 0.05 0.0002591132652014494
139 0.014942040666937828 0.05 0.00025257148081436753
140 0.014751158654689789 0.05 0.0002461595577187836
141 0.014562851749360561 0.05 0.00023991498164832592
142 0.01438284944742918 0.05 0.00023402075748890638
143 0.014199953526258469 0.05 0.00022810687369201332
144 0.014019952155649662 0.05 0.00022236046788748354
145 0.013848314061760902 0.05 0.0002169493236579001
146 0.013673176988959312 0.05 0.0002114966046065092
147 0.013504858128726482 0.05 0.00020632153609767556
148 0.01333947479724884 0.05 0.00020129914628341794
149 0.01317443698644638 0.05 0.00019634896307252347
150 0.013017300516366959 0.05 0.00019169304869137704
151 0.012859496288001537 0.05 0.000187073543202132
152 0.012701595202088356 0.05 0.00018250764696858823
153 0.012548832222819328 0.05 0.00017814396414905787
154 0.012397300451993942 0.05 0.00017386762192472816
155 0.01224779523909092 0.05 0.0001696994004305452
156 0.012098449282348156 0.05 0.00016558612696826458
157 0.011952584609389305 0.05 0.00016161741223186255
158 0.011813848279416561 0.05 0.00015788731980137527
159 0.01167192030698061 0.05 0.00015411648200824857
160 0.011535990983247757 0.05 0.00015054777031764388
161 0.011399840004742146 0.05 0.00014701510372105986
162 0.011269936338067055 0.05 0.00014368369011208415
163 0.011133764870464802 0.05 0.0001402324705850333
164 0.01100587472319603 0.05 0.0001370293612126261
165 0.01087456475943327 0.05 0.000133779103634879
166 0.010753369890153408 0.05 0.00013081383076496422
167 0.010626496747136116 0.05 0.00012774522474501282
168 0.010505926795303822 0.05 0.00012486285413615406
169 0.010385877452790737 0.05 0.00012202557263663039
170 0.01026761345565319 0.05 0.00011926238948944956
171 0.010151300579309464 0.05 0.00011657566938083619
172 0.010034547187387943 0.05 0.0001139095111284405
173 0.009920419193804264 0.05 0.00011133316002087668
174 0.009809118695557117 0.05 0.00010884900984819978
175 0.0096995634958148 0.05 0.00010643118002917618
176 0.009592891670763493 0.05 0.00010410307731945068
177 0.00948246568441391 0.05 0.00010172015754505992
178 0.009380036033689976 0.05 9.953445987775922e-05
179 0.009275581687688828 0.05 9.733001934364438e-05
180 0.009172003716230392 0.05 9.51684414758347e-05
181 0.009073896333575249 0.05 9.314340422861278e-05
182 0.008970029652118683 0.05 9.102323383558542e-05
183 0.008876845240592957 0.05 8.914187492337078e-05
184 0.008775738067924976 0.05 8.712278213351965e-05
185 0.008681151084601879 0.05 8.52548546390608e-05
186 0.00858672708272934 0.05 8.341032662428916e-05
187 0.008500782772898674 0.05 8.174898539436981e-05
188 0.008402318693697453 0.05 7.986616401467472e-05
189 0.008319847285747528 0.05 7.830603863112628e-05
190 0.008224627003073692 0.05 7.65238655731082e-05
191 0.008137322962284088 0.05 7.490791176678613e-05
192 0.008051656186580658 0.05 7.333898975048214e-05
193 0.00796405877918005 0.05 7.175189966801554e-05
194 0.007883690297603607 0.05 7.031105633359402e-05
195 0.007796663325279951 0.05 6.876731640659273e-05
196 0.007718358188867569 0.05 6.739293166901916e-05
197 0.0076429336331784725 0.05 6.608223338844255e-05
198 0.0075574093498289585 0.05 6.461158773163334e-05
199 0.007476232014596462 0.05 6.323099660221487e-05
tuning, 0, 0.005601806100457907
tuning, 1, 0.003846060484647751
tuning, 2, 0.0033185104839503765
tuning, 3, 0.002774603432044387
tuning, 4, 0.0021790950559079647
tuning, 5, 0.0017131090862676501
tuning, 6, 0.0014880899107083678
tuning, 7, 0.001428247313015163
tuning, 8, 0.0013739923015236855
tuning, 9, 0.0012630671262741089
tuning, 10, 0.0011346789542585611
tuning, 11, 0.0010582439135760069
tuning, 12, 0.0010617783991619945
tuning, 13, 0.0011058045784011483
tuning, 14, 0.0011318887118250132
tuning, 15, 0.0011041169054806232
tuning, 16, 0.0010276074754074216

 10%|███████████████████████████████████▊                                                                                                                                                                                                                                                                                                                                  | 1/10 [00:34<05:07, 34.15s/it]
tuning, 18, 0.0008524986915290356
tuning, 19, 0.000797442568000406
inversion time : 32.70464301109314
0, 0.1123598963022232
1, 0.1123598963022232
2, 0.10478794574737549
3, 0.09046924114227295
4, 0.07124512642621994
5, 0.05020024999976158
6, 0.031469374895095825
7, 0.02035907655954361
8, 0.014924722723662853
9, 0.012938713654875755
10, 0.012658330611884594
11, 0.012994535267353058
12, 0.013388551771640778
13, 0.013615208677947521
14, 0.013617407530546188
15, 0.013421955518424511
16, 0.013080443255603313
17, 0.012647213414311409
18, 0.012169661931693554
19, 0.011684896424412727
20, 0.011219484731554985
21, 0.010790867730975151
22, 0.010410532355308533
23, 0.010085168294608593
24, 0.009817433543503284
25, 0.009607521817088127
26, 0.009452437981963158
27, 0.009346978738904
28, 0.00928490236401558
29, 0.009255497716367245
0 2.86228346824646 0.05 7.602209568023682
1 2.696915864944458 0.05 6.749155521392822
2 2.5246667861938477 0.05 5.914563179016113
3 2.33178973197937 0.05 5.045373916625977
4 2.092285394668579 0.05 4.0621538162231445
5 1.766050100326538 0.05 2.8941471576690674
6 1.3688145875930786 0.05 1.7386164665222168
7 1.0126327276229858 0.05 0.9515212178230286
8 0.8032084703445435 0.05 0.5986475348472595
9 0.6810229420661926 0.05 0.4303660988807678
10 0.58170086145401 0.05 0.3139886260032654
11 0.49497586488723755 0.05 0.22734354436397552
12 0.4288581311702728 0.05 0.170663982629776
13 0.3791968822479248 0.05 0.13342711329460144
14 0.3400723934173584 0.05 0.10731422156095505
15 0.308485209941864 0.05 0.08830457925796509
16 0.28252333402633667 0.05 0.07406672835350037
17 0.2608761191368103 0.05 0.06315143406391144
18 0.24259722232818604 0.05 0.05461176484823227
19 0.22692503035068512 0.05 0.04778365418314934
20 0.21331794559955597 0.05 0.04222496971487999
21 0.20133766531944275 0.05 0.03761530667543411
22 0.1907051056623459 0.05 0.03374731168150902
23 0.18118494749069214 0.05 0.030462024733424187
24 0.17261962592601776 0.05 0.027649983763694763
25 0.16487474739551544 0.05 0.02522452175617218
26 0.15782983601093292 0.05 0.023114938288927078
27 0.15140783786773682 0.05 0.021272143349051476
28 0.1455153375864029 0.05 0.01964862272143364
29 0.14009448885917664 0.05 0.018211958929896355
30 0.1350894719362259 0.05 0.016933921724557877
31 0.13044622540473938 0.05 0.015789836645126343
32 0.12612614035606384 0.05 0.014761305414140224
33 0.12210898846387863 0.05 0.013835975900292397
34 0.11833377182483673 0.05 0.012993673793971539
35 0.11479588598012924 0.05 0.01222833152860403
36 0.1114635244011879 0.05 0.01152869313955307
37 0.10832301527261734 0.05 0.01088819932192564
38 0.10535633563995361 0.05 0.010299968533217907
39 0.10254174470901489 0.05 0.009756991639733315
40 0.09987049549818039 0.05 0.00925526861101389
41 0.09732689708471298 0.05 0.008789826184511185
42 0.09491053968667984 0.05 0.008358791470527649
43 0.09259652346372604 0.05 0.007956167683005333
44 0.0903877392411232 0.05 0.00758112408220768
45 0.0882803425192833 0.05 0.007231737021356821
46 0.0862623080611229 0.05 0.006904889363795519
47 0.08430939167737961 0.05 0.0065957847982645035
48 0.08244489878416061 0.05 0.006307280622422695
49 0.08065906912088394 0.05 0.006036998238414526
50 0.07892835140228271 0.05 0.005780701991170645
51 0.07725851982831955 0.05 0.005538692697882652
52 0.07565376907587051 0.05 0.005310992244631052
53 0.07411161065101624 0.05 0.005096676759421825
54 0.07260718196630478 0.05 0.004891856573522091
55 0.07115722447633743 0.05 0.004698428325355053
56 0.06974875181913376 0.05 0.0045142690651118755
57 0.06838934123516083 0.05 0.004340016283094883
58 0.0670667290687561 0.05 0.004173773340880871
59 0.0657857358455658 0.05 0.004015854559838772
60 0.06454028189182281 0.05 0.0038652385119348764
61 0.06333605945110321 0.05 0.0037223456893116236
62 0.0621604397892952 0.05 0.003585441969335079
63 0.06101636588573456 0.05 0.003454675432294607
64 0.05991295725107193 0.05 0.0033308574929833412
65 0.058839090168476105 0.05 0.003212524577975273
66 0.05778731033205986 0.05 0.003098699962720275
67 0.05675854533910751 0.05 0.0029893522150814533
68 0.05577463284134865 0.05 0.0028866094071418047
69 0.05480344593524933 0.05 0.0027869571931660175
70 0.05386240407824516 0.05 0.0026920679956674576
71 0.05295078083872795 0.05 0.0026017124764621258
72 0.05204135179519653 0.05 0.002513111336156726
73 0.05116982385516167 0.05 0.002429642714560032
74 0.05031474679708481 0.05 0.002349119633436203
75 0.04948628693819046 0.05 0.0022723975125700235
76 0.048666730523109436 0.05 0.002197753172367811
77 0.047880832105875015 0.05 0.002127345185726881
78 0.047109927982091904 0.05 0.0020593940280377865
79 0.046351782977581024 0.05 0.0019936435855925083
80 0.04561059549450874 0.05 0.0019303944427520037
81 0.04488510638475418 0.05 0.0018694723257794976
82 0.04418133944272995 0.05 0.0018113080877810717
83 0.04349381476640701 0.05 0.001755373552441597
84 0.04281527176499367 0.05 0.0017010301817208529
85 0.042150843888521194 0.05 0.0016486449167132378
86 0.041505638509988785 0.05 0.001598559319972992
87 0.04087104648351669 0.05 0.001550051150843501
88 0.04025261476635933 0.05 0.0015034977113828063
89 0.039652928709983826 0.05 0.001459033228456974
90 0.039065126329660416 0.05 0.001416096929460764
91 0.03848284110426903 0.05 0.001374196377582848
92 0.037912510335445404 0.05 0.0013337660348042846
93 0.037348758429288864 0.05 0.0012943954207003117
94 0.03680861368775368 0.05 0.001257226336747408
95 0.03627440333366394 0.05 0.001220998470671475
96 0.03575706109404564 0.05 0.001186419278383255
97 0.03523911535739899 0.05 0.0011522972490638494
98 0.03474577143788338 0.05 0.0011202592868357897
99 0.034247882664203644 0.05 0.0010883837239816785
100 0.03376679867506027 0.05 0.0010580213274806738
101 0.033294253051280975 0.05 0.0010286153992637992
102 0.03282962366938591 0.05 0.0010001068003475666
103 0.03236928582191467 0.05 0.0009722562972456217
104 0.03193265572190285 0.05 0.0009462038287892938
105 0.03148779273033142 0.05 0.0009200236527249217
106 0.03106348216533661 0.05 0.0008953952929005027
107 0.030639130622148514 0.05 0.0008710988331586123
108 0.03022863157093525 0.05 0.0008479134412482381
109 0.02982701174914837 0.05 0.0008255323045887053
110 0.029430216178297997 0.05 0.0008037139195948839
111 0.029035871848464012 0.05 0.0007823198102414608
112 0.028653735294938087 0.05 0.0007618633098900318
113 0.02827470563352108 0.05 0.0007418409222736955
114 0.027905136346817017 0.05 0.0007225748267956078
115 0.027545908465981483 0.05 0.0007040909258648753
116 0.027187837287783623 0.05 0.000685904873535037
117 0.02683682180941105 0.05 0.0006683080573566258
118 0.026498597115278244 0.05 0.0006515688728541136
119 0.026158833876252174 0.05 0.0006349672330543399
120 0.02582421340048313 0.05 0.0006188263650983572
121 0.02550600655376911 0.05 0.0006036698468960822
122 0.025180846452713013 0.05 0.0005883763078600168
123 0.024867404252290726 0.05 0.0005738197360187769
124 0.024556348100304604 0.05 0.0005595542024821043
125 0.02425643615424633 0.05 0.0005459697567857802
126 0.02395675703883171 0.05 0.0005325625534169376
127 0.023664601147174835 0.05 0.000519652443472296
128 0.02337373048067093 0.05 0.0005069564795121551
129 0.02309446968138218 0.05 0.0004949149442836642
130 0.022806717082858086 0.05 0.00048265865189023316
131 0.02254018373787403 0.05 0.00047144328709691763
132 0.022267451509833336 0.05 0.00046010350342839956
133 0.02200750634074211 0.05 0.00044942396925762296
134 0.02174231968820095 0.05 0.0004386582295410335
135 0.021492701023817062 0.05 0.0004286437761038542
136 0.02123308554291725 0.05 0.00041835097363218665
137 0.020990217104554176 0.05 0.0004088353016413748
138 0.02074992097914219 0.05 0.00039952818769961596
139 0.02050357684493065 0.05 0.000390098022762686
140 0.02027016505599022 0.05 0.0003812669310718775
