
  0%|                                                                                                                                                                                                                                                                                            | 0/10 [00:00<?, ?it/s]
0, 0.1364392638206482
1, 0.1364392638206482
2, 0.12979218363761902
3, 0.1169482097029686
4, 0.09893614053726196
5, 0.07756023854017258
6, 0.0554962120950222
7, 0.03876937925815582
8, 0.027033064514398575
9, 0.019468795508146286
10, 0.015014040283858776
11, 0.012621722184121609
12, 0.011441710405051708
13, 0.010876985266804695
14, 0.01055263914167881
15, 0.010260352864861488
16, 0.009895185008645058
17, 0.009426299482584
18, 0.008862964808940887
19, 0.008233566768467426
20, 0.0075730858370661736
21, 0.006914602126926184
22, 0.006288881879299879
23, 0.005723637994378805
24, 0.005233274307101965
25, 0.004821700509637594
26, 0.004487505182623863
27, 0.004221136216074228
28, 0.0040107592940330505
29, 0.003841034136712551
30, 0.0036966968327760696
31, 0.0035651461221277714
32, 0.0034352759830653667
33, 0.0033004158176481724
34, 0.003156861290335655
35, 0.0030039665289223194
36, 0.0028433669358491898
37, 0.0026781195774674416
38, 0.002512215403839946
39, 0.0023500067181885242
40, 0.0021951962262392044
41, 0.0020511760376393795
42, 0.0019199054222553968
43, 0.0018023335142061114
44, 0.0016984877875074744
45, 0.0016074401792138815
46, 0.0015276293270289898
47, 0.00145709328353405
48, 0.001393733313307166
49, 0.001335764303803444
50, 0.0012815478257834911
51, 0.0012301697861403227
52, 0.001181004336103797
53, 0.0011338558979332447
54, 0.0010887988610193133
55, 0.001045960932970047
56, 0.0010056858882308006
57, 0.000968146079685539
58, 0.000933314673602581
59, 0.0009010570938698947
60, 0.0008711069822311401
61, 0.0008431353489868343
62, 0.0008168776403181255
63, 0.0007919883355498314
64, 0.0007682241266593337
65, 0.0007454215083271265
66, 0.0007234759978018701
67, 0.0007023954531177878
68, 0.0006822740542702377
69, 0.0006631825817748904
70, 0.0006451946683228016
71, 0.000628352165222168
72, 0.0006126602529548109
73, 0.0005980621790513396
74, 0.0005845035193488002
75, 0.0005718573229387403
76, 0.0005600328440777957
77, 0.0005488658207468688
78, 0.0005383052048273385
79, 0.0005282391211949289
80, 0.0005186368944123387
81, 0.0005094276857562363
82, 0.0005006147548556328
83, 0.0004921671934425831
84, 0.0004841125919483602
85, 0.00047641032142564654
86, 0.0004690502246376127
87, 0.0004620107065420598
88, 0.0004552952595986426
89, 0.00044885239913128316
90, 0.00044268040801398456
91, 0.00043675382039509714
92, 0.0004310421645641327
93, 0.00042556290281936526
94, 0.0004202611744403839
95, 0.0004151453613303602
96, 0.0004101885133422911
97, 0.00040538489702157676
98, 0.00040073864511214197
99, 0.00039621145697310567
100, 0.00039183918852359056
101, 0.00038757314905524254
102, 0.00038342614425346255
103, 0.00037941039772704244
104, 0.00037551074638031423
105, 0.0003717445652000606
106, 0.00036808379809372127
107, 0.00036453569191507995
108, 0.0003610722196754068
109, 0.0003577109600882977
110, 0.0003544145729392767
111, 0.00035119857056997716
112, 0.0003480495070107281
113, 0.00034497951855883
114, 0.0003419711720198393
115, 0.00033904408337548375
116, 0.00033617427106946707
117, 0.00033337980858050287
118, 0.0003306364524178207
119, 0.00032797566382214427
120, 0.0003253498289268464
121, 0.00032279372680932283
122, 0.0003202807274647057
123, 0.0003178202314302325
124, 0.0003154028672724962
125, 0.0003130377735942602
126, 0.00031071738339960575
127, 0.0003084431809838861
128, 0.00030621158657595515
129, 0.00030400126706808805
130, 0.00030185197829268873
131, 0.0002997479459736496
132, 0.00029767921660095453
133, 0.0002956513490062207
134, 0.00029366358648985624
135, 0.0002917091769631952
136, 0.0002897933591157198
137, 0.0002879007370211184
138, 0.0002860473468899727
139, 0.00028423318872228265
140, 0.00028242869302630424
141, 0.0002806830161716789
142, 0.00027895605308003724
143, 0.0002772565931081772
144, 0.0002756011381279677
145, 0.00027395004872232676
146, 0.00027233047876507044
147, 0.00027075863908976316
148, 0.00026919663650915027
149, 0.00026766632799990475
150, 0.00026616378454491496
151, 0.0002646819921210408
152, 0.0002632214454934001
153, 0.0002617939026094973
154, 0.0002603908069431782
155, 0.0002589995274320245
156, 0.0002576420665718615
157, 0.000256306811934337
158, 0.00025498552713543177
159, 0.0002536875836085528
160, 0.0002524131559766829
161, 0.0002511502243578434
162, 0.0002499168913345784
163, 0.00024868949549272656
164, 0.0002474681823514402
165, 0.00024629710242152214
166, 0.0002451175241731107
167, 0.00024396080698352307
168, 0.0002428102307021618
169, 0.00024168610980268568
170, 0.0002405711420578882
171, 0.0002394708280917257
172, 0.00023838502238504589
173, 0.00023730895190965384
174, 0.00023625860922038555
175, 0.00023520743707194924
176, 0.000234179591643624
177, 0.00023315229918807745
178, 0.00023215264081954956
179, 0.00023115301155485213
180, 0.000230166464461945
181, 0.0002291982527822256
182, 0.0002282261848449707
183, 0.00022727256873622537
184, 0.00022633105982095003
185, 0.00022539612837135792
186, 0.00022446163347922266
187, 0.0002235436550108716
188, 0.00022262625861912966
189, 0.00022173041361384094
190, 0.00022083699877839535
191, 0.00021997337171342224
192, 0.00021912186639383435
193, 0.0002182688331231475
194, 0.0002174349210690707
195, 0.0002166166523238644
196, 0.00021581273176707327
197, 0.0002150200743926689
198, 0.00021421855490189046
199, 0.00021344638662412763
200, 0.00021266864496283233
201, 0.0002119111450156197
202, 0.00021116776042617857
203, 0.00021042651496827602
204, 0.00020971083722542971
205, 0.00020899175433441997
206, 0.00020829783170484006
207, 0.00020761041378136724
208, 0.0002069318143185228
209, 0.0002062659477815032
210, 0.00020561028213705868
211, 0.00020495503849815577
212, 0.0002043167914962396
213, 0.00020368302648421377
214, 0.00020306944497860968
215, 0.00020245416089892387
216, 0.00020185211906209588
217, 0.00020125985611230135
218, 0.0002006685099331662
219, 0.0002000944223254919
220, 0.0001995294587686658
221, 0.0001989703596336767
222, 0.00019841402536258101
223, 0.00019788234203588217
224, 0.0001973356556845829
225, 0.00019680906552821398
226, 0.00019628994050435722
227, 0.00019577864441089332
228, 0.00019527824770193547
229, 0.0001947791752172634
230, 0.00019428308587521315
231, 0.00019380866433493793
232, 0.0001933309540618211
233, 0.0001928597775986418
234, 0.0001923992531374097
235, 0.00019193693879060447
236, 0.00019148722640238702
237, 0.00019104755483567715
238, 0.00019061777857132256
239, 0.0001901825744425878
240, 0.00018975845887325704
241, 0.00018934083345811814
242, 0.00018893228843808174
243, 0.00018852049834094942
244, 0.0001881189236883074
245, 0.00018772610928863287
246, 0.00018734767218120396
247, 0.00018696689221542329
248, 0.00018658614135347307
249, 0.00018621727940626442
250, 0.0001858537143561989
251, 0.000185488723218441
252, 0.00018513422401156276
253, 0.00018478342099115252
254, 0.00018443973385728896
255, 0.000184103031642735
256, 0.00018376913794782013
257, 0.00018344688578508794
258, 0.00018311897292733192
259, 0.0001828087551984936
260, 0.00018249177082907408
261, 0.00018218043260276318
262, 0.0001818802993511781
263, 0.00018158741295337677
264, 0.00018128956435248256
265, 0.00018100219313055277
266, 0.0001807159133022651
267, 0.00018044169701170176
268, 0.00018015822570305318
269, 0.00017988693434745073
270, 0.00017962188576348126
271, 0.00017936117365024984
272, 0.000179106296855025
273, 0.00017884571570903063
274, 0.00017860140360426158
275, 0.00017834802565630525
276, 0.00017811107682064176
277, 0.0001778681471478194
278, 0.00017762619245331734
279, 0.00017740052135195583
280, 0.00017717326409183443
281, 0.00017695028509479016
282, 0.00017673184629529715
283, 0.00017651256348472089
284, 0.00017629933427087963
285, 0.00017609829956199974
286, 0.0001758928265189752
287, 0.00017568356997799128
288, 0.00017548553296364844
289, 0.00017529481556266546
290, 0.00017510293400846422
291, 0.00017491262406110764
292, 0.00017473447951488197
293, 0.00017456010391470045
294, 0.0001743763277772814
295, 0.0001742008316796273
296, 0.000174028828041628
297, 0.00017386487161275
298, 0.00017370031855534762
299, 0.00017354486044496298
300, 0.00017337859026156366
301, 0.00017322850180789828
302, 0.00017307121015619487
303, 0.00017292212578468025
304, 0.00017277171718887985
305, 0.00017263003974221647
306, 0.0001724918110994622
307, 0.00017235465929843485
308, 0.00017221392772626132
309, 0.0001720838190522045
310, 0.0001719589054118842
311, 0.0001718334824545309
312, 0.00017171222134493291
313, 0.00017158538685180247
314, 0.0001714692625682801
315, 0.00017135012603830546
316, 0.00017123890575021505
317, 0.00017112841305788606
318, 0.00017102548736147583
319, 0.00017091649351641536
320, 0.0001708134077489376
321, 0.0001707076735328883
322, 0.00017060659592971206
323, 0.00017051724717020988
324, 0.00017042914987541735
325, 0.00017033306357916445
326, 0.00017024394765030593
327, 0.0001701593864709139
328, 0.00017007533460855484
329, 0.00016999388753902167
330, 0.00016990763833746314
331, 0.00016983156092464924
332, 0.00016975821927189827
333, 0.000169674982316792
334, 0.00016960882931016386
335, 0.00016954033344518393
336, 0.00016947327821981162
337, 0.0001694125821813941
338, 0.00016934776795096695
339, 0.00016928224067669362
340, 0.00016922391660045832
341, 0.0001691649667918682
342, 0.00016910754493437707
343, 0.00016905181109905243
344, 0.0001689943892415613
345, 0.00016894517466425896
346, 0.0001689000055193901
347, 0.00016885179502423853
348, 0.000168797152582556
349, 0.00016876088920980692
350, 0.00016871900879777968
351, 0.00016868009697645903
352, 0.00016864300414454192
353, 0.00016860177856869996
354, 0.00016856406000442803
355, 0.0001685318275121972
356, 0.00016849406529217958
357, 0.00016846403013914824
358, 0.00016843268531374633
359, 0.00016840564785525203
360, 0.00016837198927532881
361, 0.00016834947746247053
362, 0.00016832290566526353
363, 0.0001683013397268951
364, 0.00016827977378852665
365, 0.00016825698548927903
366, 0.00016823975602164865
367, 0.00016821522149257362
368, 0.0001681977155385539
369, 0.00016818100993987173
370, 0.00016816388233564794
371, 0.00016815084381960332
372, 0.00016813806723803282
373, 0.00016812252579256892
374, 0.00016811490058898926
375, 0.00016810046508908272
376, 0.00016808991495054215
377, 0.0001680802961345762
378, 0.00016807267093099654
379, 0.00016806123312562704
380, 0.00016805893392302096
381, 0.000168048485647887
382, 0.00016804211190901697
383, 0.00016803626203909516
384, 0.00016803605831228197
385, 0.00016803093603812158
386, 0.00016802507161628455
387, 0.0001680243731243536
388, 0.0001680213463259861
389, 0.00016802034224383533
390, 0.0001680175046203658
391, 0.0001680128916632384
392, 0.00016801682068035007
393, 0.0001680105779087171
394, 0.00016800736193545163
395, 0.00016801005403976887
396, 0.00016800471348688006
397, 0.00016801033052615821
398, 0.00016800896264612675
399, 0.00016801126184873283
0 2.5696253776550293 0.05 7.866448879241943
1 2.410773277282715 0.05 6.923917770385742
2 2.243701457977295 0.05 5.9974870681762695
3 2.039351463317871 0.05 4.954767227172852
4 1.7656407356262207 0.05 3.7140164375305176
5 1.3639601469039917 0.05 2.216371536254883
6 0.9260337352752686 0.05 1.0216280221939087
7 0.6311460137367249 0.05 0.4745683968067169
8 0.51459139585495 0.05 0.3154744505882263
9 0.4281012713909149 0.05 0.2183394432067871
10 0.36378079652786255 0.05 0.15765896439552307
11 0.3163174092769623 0.05 0.11920250952243805
12 0.27880504727363586 0.05 0.09260629117488861
13 0.2486703097820282 0.05 0.07366938889026642
14 0.2245808094739914 0.05 0.06008753925561905
15 0.20540142059326172 0.05 0.050262726843357086
16 0.1899452954530716 0.05 0.04298295080661774
17 0.177205890417099 0.05 0.037410669028759
18 0.1664833128452301 0.05 0.0330202691257
19 0.1572515368461609 0.05 0.029459742829203606
20 0.1491774171590805 0.05 0.026512175798416138
21 0.14201290905475616 0.05 0.024026738479733467
22 0.13556988537311554 0.05 0.02189604379236698
23 0.12974977493286133 0.05 0.020056376233696938
24 0.1244400292634964 0.05 0.018448425456881523
25 0.11955936253070831 0.05 0.017029674723744392
26 0.11507102102041245 0.05 0.015775062143802643
27 0.11090733110904694 0.05 0.014654118567705154
28 0.10705474764108658 0.05 0.013653721660375595
29 0.1034473180770874 0.05 0.012749044224619865
30 0.10007838159799576 0.05 0.011932176537811756
31 0.09691590815782547 0.05 0.011189980432391167
32 0.09394419938325882 0.05 0.010514270514249802
33 0.09114743769168854 0.05 0.009897558949887753
34 0.08848150074481964 0.05 0.009327045641839504
35 0.08597171306610107 0.05 0.00880542490631342
36 0.08358417451381683 0.05 0.008323140442371368
37 0.08131249994039536 0.05 0.007876871153712273
38 0.07913321256637573 0.05 0.007460308261215687
39 0.07706975936889648 0.05 0.007076316047459841
40 0.0750851035118103 0.05 0.0067165568470954895
41 0.07318311929702759 0.05 0.006380592007189989
42 0.07136375457048416 0.05 0.006067287176847458
43 0.0696125477552414 0.05 0.0057731689885258675
44 0.06792367249727249 0.05 0.005496439523994923
45 0.06630051136016846 0.05 0.005236882716417313
46 0.06473953276872635 0.05 0.004993191920220852
47 0.06322779506444931 0.05 0.0047627221792936325
48 0.061777692288160324 0.05 0.004546765238046646
49 0.06037024036049843 0.05 0.004341951571404934
50 0.05900789424777031 0.05 0.0041481973603367805
51 0.057706039398908615 0.05 0.003967178054153919
52 0.05642741546034813 0.05 0.0037933201529085636
53 0.05519911274313927 0.05 0.0036299724597483873
54 0.054007384926080704 0.05 0.003474925644695759
55 0.05284931883215904 0.05 0.003327498910948634
56 0.05172962322831154 0.05 0.0031879961024969816
57 0.05064939334988594 0.05 0.0030562416650354862
58 0.04959028959274292 0.05 0.0029297627042979
59 0.04857231676578522 0.05 0.002810714766383171
60 0.047577857971191406 0.05 0.0026968009769916534
61 0.04661241173744202 0.05 0.002588464878499508
62 0.04568055272102356 0.05 0.002486004028469324
63 0.044768281280994415 0.05 0.0023877015337347984
64 0.043885283172130585 0.05 0.0022944414522498846
65 0.043029364198446274 0.05 0.002205814700573683
66 0.04218456149101257 0.05 0.0021200506016612053
67 0.041374143213033676 0.05 0.0020393752492964268
68 0.04057827591896057 0.05 0.0019616717472672462
69 0.03981170058250427 0.05 0.0018882548902183771
70 0.039070453494787216 0.05 0.0018185953376814723
71 0.03832633048295975 0.05 0.0017499822424724698
72 0.03761991485953331 0.05 0.0016860668547451496
73 0.036929305642843246 0.05 0.0016247308813035488
74 0.03624970465898514 0.05 0.001565482234582305
75 0.035595595836639404 0.05 0.0015094953123480082
76 0.03494630008935928 0.05 0.0014549284242093563
77 0.034324053674936295 0.05 0.001403577160090208
78 0.03371410444378853 0.05 0.0013541365042328835
79 0.033119309693574905 0.05 0.001306777587160468
80 0.032536689192056656 0.05 0.0012612056452780962
81 0.03196709230542183 0.05 0.0012174340663477778
82 0.03141174092888832 0.05 0.0011755015002563596
83 0.03087642975151539 0.05 0.0011357776820659637
84 0.03034900315105915 0.05 0.0010973066091537476
85 0.029831252992153168 0.05 0.0010601861868053675
86 0.029329104349017143 0.05 0.0010247945319861174
87 0.028840234503149986 0.05 0.0009909156942740083
88 0.02835598774254322 0.05 0.000957918877247721
89 0.027885736897587776 0.05 0.000926410430110991
90 0.027430277317762375 0.05 0.000896395358722657
91 0.026976466178894043 0.05 0.0008669804083183408
92 0.026542430743575096 0.05 0.0008393063326366246
93 0.02611762098968029 0.05 0.0008126553148031235
94 0.02569001540541649 0.05 0.0007862630300223827
95 0.02528214454650879 0.05 0.0007614948553964496
96 0.02488398179411888 0.05 0.0007376985158771276
97 0.024489881470799446 0.05 0.0007145169074647129
98 0.02410067245364189 0.05 0.0006919862353242934
99 0.023728497326374054 0.05 0.000670779263600707
tuning, 0, 0.00020856263290625066
tuning, 1, 0.00020117619715165347
tuning, 2, 0.00022039804025553167
tuning, 3, 0.00020137210958637297
tuning, 4, 0.00018768812878988683
tuning, 5, 0.00018108714721165597
tuning, 6, 0.00017679300799500197
tuning, 7, 0.00017415685579180717
tuning, 8, 0.00017441745148971677
tuning, 9, 0.00016852590488269925
tuning, 10, 0.0001636516535654664
tuning, 11, 0.00016607709403615445
tuning, 12, 0.00015610214904882014
tuning, 13, 0.00015382497804239392
tuning, 14, 0.00015594047727063298
tuning, 15, 0.00014684956113342196
tuning, 16, 0.00014531429042108357
tuning, 17, 0.00014412454038392752
tuning, 18, 0.00013979332288727164
tuning, 19, 0.0001412058190908283
tuning, 20, 0.00013716559624299407
tuning, 21, 0.00013504410162568092
tuning, 22, 0.00013547204434871674
tuning, 23, 0.00013057314208708704
tuning, 24, 0.00012866388715337962
tuning, 25, 0.00012823089491575956
tuning, 26, 0.0001248090120498091
tuning, 27, 0.00012430570495780557
tuning, 28, 0.00012226749095134437
tuning, 29, 0.00012079680163878947
tuning, 30, 0.00012046269694110379
tuning, 31, 0.000117313044029288
tuning, 32, 0.000116840994451195
tuning, 33, 0.00011531935160746798
tuning, 34, 0.0001134808044298552
tuning, 35, 0.00011287076631560922
tuning, 36, 0.00011081370757892728
tuning, 37, 0.000109722743218299
tuning, 38, 0.00010854630818357691
tuning, 39, 0.00010710919013945386
tuning, 40, 0.00010589923476800323
tuning, 41, 0.00010453582217451185
tuning, 42, 0.0001035426976159215
tuning, 43, 0.00010205671424046159
tuning, 44, 0.00010123528772965074
tuning, 45, 0.00010006879165302962
tuning, 46, 9.852922812569886e-05
tuning, 47, 9.764308197190985e-05
tuning, 48, 9.636926552047953e-05
tuning, 49, 9.52104601310566e-05
tuning, 50, 9.410679194843397e-05
tuning, 51, 9.311077155871317e-05
tuning, 52, 9.212464647134766e-05
tuning, 53, 9.078569564735517e-05
tuning, 54, 9.019608842208982e-05
tuning, 55, 8.871758473105729e-05
tuning, 56, 8.789812272880226e-05
tuning, 57, 8.682816405780613e-05
tuning, 58, 8.560166315874085e-05
tuning, 59, 8.446867286693305e-05
tuning, 60, 8.344968955498189e-05
tuning, 61, 8.23406080598943e-05
tuning, 62, 8.141088619595394e-05
tuning, 63, 8.029071614146233e-05
tuning, 64, 7.936156180221587e-05
tuning, 65, 7.835172436898574e-05
tuning, 66, 7.768283830955625e-05
tuning, 67, 7.618963718414307e-05
tuning, 68, 7.553234900115058e-05
tuning, 69, 7.43416603654623e-05
tuning, 70, 7.33320921426639e-05
tuning, 71, 7.220848056022078e-05
tuning, 72, 7.119945075828582e-05
tuning, 73, 7.045223901513964e-05
tuning, 74, 6.928532820893452e-05
tuning, 75, 6.829309859313071e-05
tuning, 76, 6.72186870360747e-05
tuning, 77, 6.644704262726009e-05
tuning, 78, 6.533847044920549e-05
tuning, 79, 6.473464600276202e-05

 10%|███████████████████████████▌                                                                                                                                                                                                                                                       | 1/10 [02:49<25:26, 169.61s/it]
0, 0.1123598963022232
1, 0.1123598963022232
2, 0.10478787869215012
3, 0.0904693603515625
4, 0.07124535739421844
5, 0.050200194120407104
6, 0.03146937116980553
7, 0.020328229293227196
8, 0.014864576980471611
9, 0.012927018105983734
10, 0.012800723314285278
11, 0.013368934392929077
12, 0.01402694545686245
13, 0.014502487145364285
14, 0.014706271700561047
15, 0.014646224677562714
16, 0.014367533847689629
17, 0.013928771018981934
18, 0.013384289108216763
19, 0.012776514515280724
20, 0.012134028598666191
21, 0.011478441767394543
22, 0.010822813957929611
23, 0.010177397169172764
24, 0.009551415219902992
25, 0.008952466771006584
26, 0.00838845781981945
27, 0.00786609761416912
28, 0.007389415055513382
29, 0.006960289087146521
30, 0.006579249165952206
31, 0.006241761147975922
32, 0.0059419116005301476
33, 0.005673857405781746
34, 0.005430213641375303
35, 0.00520489364862442
36, 0.004993431270122528
