
100%|████████████████████████████████████████████████████████████████████████████████████████████████████████████████████████████████████████████████████████████████████████████████████████████████████████████████████████████████████████████████████████████████████████████████| 1/1 [00:00<00:00,  4.50it/s]
0, 0.1364392638206482
1, 0.1364392638206482
2, 0.1297921985387802
3, 0.11694829165935516
4, 0.09893618524074554
5, 0.07756024599075317
6, 0.05549611896276474
7, 0.03877311572432518
8, 0.027045533061027527
9, 0.01948963850736618
10, 0.01503815408796072
11, 0.012640617787837982
12, 0.011447727680206299
13, 0.010865211486816406
14, 0.010523667559027672
15, 0.010215532034635544
16, 0.009841321036219597
17, 0.009367136284708977
18, 0.008805111050605774
19, 0.008181020617485046
20, 0.00752968480810523
21, 0.006880235858261585
22, 0.006261877715587616
23, 0.005697019398212433
24, 0.005200921557843685
25, 0.004777923226356506
26, 0.0044254581443965435
27, 0.0041367728263139725
28, 0.0039021396078169346
29, 0.003708932315930724
30, 0.003545275656506419
31, 0.0034007318317890167
32, 0.0032658781856298447
33, 0.0031345728784799576
34, 0.0030030016787350178
35, 0.002868853509426117
36, 0.002732113003730774
37, 0.002593435812741518
38, 0.0024547744542360306
39, 0.0023181920405477285
40, 0.002185914432629943
41, 0.0020598340779542923
42, 0.0019416906870901585
43, 0.0018322633113712072
44, 0.0017320954939350486
45, 0.0016413372941315174
46, 0.0015595004661008716
47, 0.001486029475927353
48, 0.0014202313032001257
49, 0.0013612217735499144
50, 0.0013079233467578888
51, 0.001259655924513936
52, 0.0012156054144725204
53, 0.0011752580758184195
54, 0.001137903775088489
55, 0.0011033639311790466
56, 0.0010712752118706703
57, 0.001041395589709282
58, 0.0010135630145668983
59, 0.0009876724798232317
60, 0.0009635634487494826
61, 0.0009412685176357627
62, 0.0009204820962622762
63, 0.0009013222297653556
64, 0.0008835952612571418
65, 0.0008672376861795783
66, 0.0008522155694663525
67, 0.0008383168606087565
68, 0.0008255987195298076
69, 0.0008138406556099653
70, 0.0008030915632843971
71, 0.0007932212902233005
72, 0.000784141244366765
73, 0.0007758209249004722
74, 0.0007682312279939651
75, 0.0007612928166054189
76, 0.0007549060392193496
77, 0.0007491109427064657
78, 0.0007438419270329177
79, 0.0007390551036223769
80, 0.0007347319042310119
81, 0.000730821629986167
82, 0.0007273153751157224
83, 0.0007242192514240742
84, 0.0007214441429823637
85, 0.0007189695024862885
86, 0.0007168236188590527
87, 0.0007149550365284085
88, 0.0007133273757062852
89, 0.0007119964575394988
90, 0.0007108374265953898
91, 0.0007098696660250425
92, 0.0007090945146046579
93, 0.0007084880489856005
94, 0.0007079965434968472
95, 0.0007076638285070658
96, 0.000707408762536943
97, 0.0007072598673403263
98, 0.0007071670843288302
99, 0.0007071291329339147
0 2.419105291366577 0.5 7.640514850616455
1 1.358652114868164 0.5 2.4100701808929443
2 1.185538411140442 0.5 1.8350352048873901
3 1.2856522798538208 0.5 2.1580429077148438
4 1.478088617324829 0.5 2.852423667907715
  0%|                                                                                                                                                                                                                                                                                        | 0/1 [00:00<?, ?it/s]
5 1.449051022529602 0.5 2.7414510250091553
6 1.3666973114013672 0.5 2.43869686126709
7 1.393135905265808 0.5 2.5339620113372803
8 1.4867573976516724 0.5 2.8859801292419434
9 1.4798959493637085 0.5 2.8594040870666504
10 1.4011214971542358 0.5 2.5630950927734375
11 1.4343935251235962 0.5 2.6862707138061523
12 1.5025981664657593 0.5 2.947805881500244
13 1.516502022743225 0.5 3.0026113986968994
14 1.4587233066558838 0.5 2.7781710624694824
15 1.458609938621521 0.5 2.7777390480041504
16 1.514520525932312 0.5 2.994770050048828
17 1.5107131004333496 0.5 2.979731559753418
18 1.460955262184143 0.25 2.7866787910461426
19 1.4721691608428955 0.25 2.8296234607696533
20 0.7324009537696838 0.25 0.7003431916236877
21 0.5186768770217896 0.25 0.3512423634529114
22 0.4054241478443146 0.25 0.2146012932062149
23 0.43589794635772705 0.25 0.24807488918304443
24 0.48159727454185486 0.25 0.3028176426887512
25 0.5471577644348145 0.25 0.39087527990341187
26 0.5780385732650757 0.25 0.43624135851860046
27 0.6054973006248474 0.25 0.4786715507507324
28 0.6557196974754333 0.25 0.5613704919815063
29 0.6673481464385986 0.25 0.5814575552940369
30 0.6804590225219727 0.25 0.6045289039611816
31 0.6918214559555054 0.25 0.6248865127563477
32 0.6983413100242615 0.25 0.6367201805114746
33 0.7133832573890686 0.25 0.6644449234008789
34 0.7145435214042664 0.25 0.6666079759597778
35 0.727883517742157 0.25 0.6917304992675781
36 0.7527934908866882 0.25 0.7398861050605774
37 0.7561233043670654 0.25 0.7464460134506226
38 0.772533655166626 0.125 0.779198169708252
39 0.7562834620475769 0.125 0.7467621564865112
40 0.26626279950141907 0.125 0.09256228804588318
41 0.16259852051734924 0.125 0.034518055617809296
42 0.11818841099739075 0.125 0.0182374007999897
43 0.10698932409286499 0.125 0.014944935217499733
44 0.09476146101951599 0.125 0.011724021285772324
45 0.10246267914772034 0.125 0.01370706781744957
46 0.10870299488306046 0.125 0.015427520498633385
47 0.11825945973396301 0.125 0.018259331583976746
48 0.1378682255744934 0.125 0.02481655403971672
49 0.1547151654958725 0.125 0.03125207871198654
50 0.18206079304218292 0.125 0.04327589273452759
51 0.1985533982515335 0.125 0.051471613347530365
52 0.21892769634723663 0.125 0.06257697194814682
53 0.22575950622558594 0.125 0.06654343008995056
54 0.23570697009563446 0.125 0.07253672927618027
55 0.23503698408603668 0.125 0.07212494313716888
56 0.23785406351089478 0.125 0.07386424392461777
57 0.23496678471565247 0.125 0.07208187878131866
58 0.23439040780067444 0.125 0.0717286765575409
59 0.2320844829082489 0.125 0.07032427936792374
60 0.23177045583724976 0.0625 0.07013411074876785
61 0.23070144653320312 0.0625 0.06948863714933395
62 0.06138542294502258 0.0625 0.004919758066534996
63 0.045922473073005676 0.0625 0.0027533643878996372
64 0.040277980268001556 0.0625 0.0021181099582463503
65 0.03598685935139656 0.0625 0.0016908342950046062
66 0.03259585425257683 0.0625 0.0013871961273252964
67 0.02984703704714775 0.0625 0.0011630961671471596
68 0.027580607682466507 0.0625 0.0009931635577231646
69 0.0257249902933836 0.0625 0.0008640195010229945
70 0.024131564423441887 0.0625 0.0007602984551340342
71 0.022787515074014664 0.0625 0.0006779646500945091
72 0.021631430834531784 0.0625 0.0006109190289862454
73 0.020613225176930428 0.0625 0.0005547598702833056
74 0.019710518419742584 0.0625 0.0005072349449619651
75 0.018900133669376373 0.0625 0.00046638320782221854
76 0.018168793991208076 0.0625 0.0004309882060624659
77 0.017510367557406425 0.0625 0.0004003166686743498
78 0.016890980303287506 0.0625 0.0003724970738403499
79 0.016329100355505943 0.0625 0.0003481269523035735
80 0.015802256762981415 0.0625 0.00032602535793557763
81 0.015314273536205292 0.0625 0.0003062005271203816
82 0.01485657598823309 0.0625 0.00028817116981372237
83 0.014423510991036892 0.0625 0.0002716158051043749
84 0.01401528064161539 0.0625 0.00025645826826803386
85 0.01363383512943983 0.0625 0.00024268847482744604
86 0.013270573690533638 0.0625 0.00022992835147306323
87 0.012923143804073334 0.0625 0.0002180467126891017
88 0.012598346918821335 0.0625 0.0002072241040877998
89 0.012277361005544662 0.0625 0.000196799126570113
90 0.011976376175880432 0.0625 0.0001872681750683114
91 0.011692830361425877 0.0625 0.0001785058411769569
92 0.011420832946896553 0.0625 0.00017029765876941383
93 0.011157482862472534 0.0625 0.0001625345175852999
94 0.010903393849730492 0.0625 0.00015521601017098874
95 0.010660707950592041 0.0625 0.0001483833766542375
96 0.010430552996695042 0.0625 0.00014204561011865735
97 0.010198170319199562 0.0625 0.00013578683137893677
98 0.009991439990699291 0.0625 0.00013033748837187886
99 0.009777732193470001 0.0625 0.00012482149759307504

100%|████████████████████████████████████████████████████████████████████████████████████████████████████████████████████████████████████████████████████████████████████████████████████████████████████████████████████████████████████████████████████████████████████████████████| 1/1 [00:07<00:00,  7.54s/it]
original latents (mean/std) : -0.00758, 1.00421
reconstructed latents (mean/std) : -0.02695, 1.09524