
  0%|                                                                                                                                                                                                                                                                                            | 0/10 [00:00<?, ?it/s]
0, 0.1364392638206482
1, 0.1364392638206482
2, 0.1297924965620041
3, 0.11694812774658203
4, 0.09893618524074554
5, 0.07756015658378601
6, 0.05549614876508713
7, 0.03877010568976402
8, 0.02703547477722168
9, 0.019472863525152206
10, 0.015018671751022339
11, 0.012625264003872871
12, 0.011442827992141247
13, 0.010874418541789055
14, 0.010546833276748657
15, 0.010251498781144619
16, 0.009884443134069443
17, 0.0094147315248847
18, 0.008851760998368263
19, 0.008223864249885082
20, 0.0075647770427167416
21, 0.006907436531037092
22, 0.006283027585595846
23, 0.005717586725950241
24, 0.005225419066846371
25, 0.0048120636492967606
26, 0.004473749548196793
27, 0.004202647600322962
28, 0.003987183794379234
29, 0.0038129182066768408
30, 0.0036649848334491253
31, 0.0035308310762047768
32, 0.0034004985354840755
33, 0.0032666660845279694
34, 0.0031258349772542715
35, 0.0029771532863378525
36, 0.002821600530296564
37, 0.0026618600822985172
38, 0.002501374576240778
39, 0.002343808300793171
40, 0.002192877931520343
41, 0.0020514396019279957
42, 0.0019215516513213515
43, 0.0018043427262455225
44, 0.0016999132931232452
45, 0.0016077072359621525
46, 0.001526602078229189
47, 0.0014547946630045772
48, 0.0013906725216656923
49, 0.0013324348255991936
50, 0.0012786933220922947
51, 0.0012283514952287078
52, 0.001180646475404501
53, 0.0011352435685694218
54, 0.0010918360203504562
55, 0.0010505963582545519
56, 0.001011648797430098
57, 0.0009750562603585422
58, 0.000940969621296972
59, 0.0009092900436371565
60, 0.0008799590868875384
61, 0.000852686061989516
62, 0.0008272167760878801
63, 0.0008034169441089034
64, 0.0007809897651895881
65, 0.0007597437361255288
66, 0.0007394845597445965
67, 0.0007201208500191569
68, 0.0007016125018708408
69, 0.0006839462439529598
70, 0.0006670961156487465
71, 0.0006511536194011569
72, 0.0006360830739140511
73, 0.0006219232454895973
74, 0.0006086128414608538
75, 0.0005961607093922794
76, 0.0005845233681611717
77, 0.000573601690120995
78, 0.0005633601685985923
79, 0.0005537187098525465
80, 0.0005446160212159157
81, 0.0005359668866731226
82, 0.0005277582677081227
83, 0.0005199195584282279
84, 0.0005124309100210667
85, 0.0005052898777648807
86, 0.0004984306870028377
87, 0.0004918967606499791
88, 0.0004856482846662402
89, 0.00047968997387215495
90, 0.0004739742144010961
91, 0.00046851192018948495
92, 0.00046328315511345863
93, 0.0004582795954775065
94, 0.0004534851759672165
95, 0.0004488936101552099
96, 0.000444464705651626
97, 0.0004402281192597002
98, 0.0004361409228295088
99, 0.00043222238309681416
100, 0.000428435712819919
101, 0.0004247946781106293
102, 0.00042128292261622846
103, 0.00041790405521169305
104, 0.0004146260325796902
105, 0.00041147018782794476
106, 0.00040840747533366084
107, 0.0004054590535815805
108, 0.0004026145616080612
109, 0.0003998317988589406
110, 0.0003971594269387424
111, 0.00039457884849980474
112, 0.0003920768795069307
113, 0.0003896536072716117
114, 0.0003873041714541614
115, 0.00038504693657159805
116, 0.00038285538903437555
117, 0.0003807262401096523
118, 0.000378678145352751
119, 0.0003766822046600282
120, 0.00037474752753041685
121, 0.00037287594750523567
122, 0.000371066911611706
123, 0.0003693118633236736
124, 0.0003676064661704004
125, 0.00036596329300664365
126, 0.0003643604868557304
127, 0.0003628204285632819
128, 0.00036132725654169917
129, 0.0003598611510824412
130, 0.00035847281105816364
131, 0.00035710714291781187
132, 0.000355791999027133
133, 0.0003545036888681352
134, 0.0003532813279889524
135, 0.000352081231540069
136, 0.0003509202506393194
137, 0.00034980999771505594
138, 0.0003487319918349385
139, 0.00034768175100907683
140, 0.00034667697036638856
141, 0.00034570443676784635
142, 0.00034475288703106344
143, 0.000343844061717391
144, 0.0003429623320698738
145, 0.00034211802994832397
146, 0.000341303733875975
147, 0.00034051405964419246
148, 0.00033975494443438947
149, 0.0003390315396245569
150, 0.0003383284783922136
151, 0.0003376541135367006
152, 0.00033699977211654186
153, 0.0003363866126164794
154, 0.00033578829606994987
155, 0.00033521297154948115
156, 0.000334672600729391
157, 0.00033414026256650686
158, 0.0003336490481160581
159, 0.0003331680200062692
160, 0.00033272753353230655
161, 0.00033228169195353985
162, 0.00033187260851264
163, 0.00033147656358778477
164, 0.000331100047333166
165, 0.0003307443985249847
166, 0.0003304154088255018
167, 0.0003300925891380757
168, 0.0003297960793133825
169, 0.00032951205503195524
170, 0.00032924889819696546
171, 0.00032899886718951166
172, 0.0003287679865024984
173, 0.00032855989411473274
174, 0.00032835593447089195
175, 0.00032816099701449275
176, 0.00032798730535432696
177, 0.00032782263588160276
178, 0.0003276773204561323
179, 0.0003275444614700973
180, 0.0003274165210314095
181, 0.000327298475895077
182, 0.00032719862065277994
183, 0.0003271130844950676
184, 0.0003270240849815309
185, 0.00032695254776626825
186, 0.00032689207000657916
187, 0.0003268362197559327
188, 0.00032678741263225675
189, 0.0003267402062192559
190, 0.00032671200460754335
191, 0.0003266730054747313
192, 0.0003266533312853426
193, 0.00032663013553246856
194, 0.000326622452121228
195, 0.00032660632859915495
196, 0.00032659474527463317
197, 0.00032659474527463317
198, 0.00032658607233315706
199, 0.0003265913692303002
0 2.458744764328003 0.05 7.744040489196777
1 2.3039638996124268 0.05 6.799736022949219
2 2.1422300338745117 0.05 5.878586769104004
3 1.9422497749328613 0.05 4.832266807556152
4 1.660117506980896 0.05 3.5303549766540527
5 1.259284496307373 0.05 2.031367301940918
6 0.8230879306793213 0.05 0.8678269386291504
7 0.5880491137504578 0.05 0.4429634213447571
8 0.48348113894462585 0.05 0.29943305253982544
9 0.40014785528182983 0.05 0.20510756969451904
10 0.3427274823188782 0.05 0.15046605467796326
11 0.3000917434692383 0.05 0.11535827815532684
12 0.26755470037460327 0.05 0.0916992574930191
13 0.24191896617412567 0.05 0.07496879994869232
14 0.22105389833450317 0.05 0.06259462982416153
15 0.20382845401763916 0.05 0.053219445049762726
16 0.1894194632768631 0.05 0.04596104472875595
17 0.17718487977981567 0.05 0.04021555930376053
18 0.16665402054786682 0.05 0.03557724878191948
19 0.15745456516742706 0.05 0.031757861375808716
20 0.1492912322282791 0.05 0.02855021506547928
21 0.1419956386089325 0.05 0.02582799643278122
22 0.13539955019950867 0.05 0.023484166711568832
23 0.1293998807668686 0.05 0.021449070423841476
24 0.1239091008901596 0.05 0.019667405635118484
25 0.1188695877790451 0.05 0.018100149929523468
26 0.11423402279615402 0.05 0.016715971753001213
27 0.10993801057338715 0.05 0.015482334420084953
28 0.10595449805259705 0.05 0.01438068225979805
29 0.10224506258964539 0.05 0.01339138112962246
30 0.0987764224410057 0.05 0.012498194351792336
31 0.09552872180938721 0.05 0.011689841747283936
32 0.09247587621212006 0.05 0.010954627767205238
33 0.08959728479385376 0.05 0.010283250361680984
34 0.08688735961914062 0.05 0.009670611470937729
35 0.0843098908662796 0.05 0.009105374105274677
36 0.08187858015298843 0.05 0.008587786927819252
37 0.07954816520214081 0.05 0.008105896413326263
38 0.07734139263629913 0.05 0.007662396878004074
39 0.0752338394522667 0.05 0.00725048640742898
40 0.07321800291538239 0.05 0.006867149844765663
41 0.07129720598459244 0.05 0.006511569954454899
42 0.06945127248764038 0.05 0.0061787571758031845
43 0.06768489629030228 0.05 0.005868461448699236
44 0.06598512828350067 0.05 0.005577412899583578
45 0.06435292214155197 0.05 0.005304899998009205
46 0.06278959661722183 0.05 0.005050287116318941
47 0.06127997860312462 0.05 0.004810363985598087
48 0.05982254818081856 0.05 0.00458427332341671
49 0.05842556431889534 0.05 0.004372668452560902
50 0.05707684904336929 0.05 0.004173118155449629
51 0.055762626230716705 0.05 0.0039831544272601604
52 0.05450684204697609 0.05 0.003805771702900529
53 0.05328371375799179 0.05 0.0036368859000504017
54 0.052108049392700195 0.05 0.0034781661815941334
55 0.050964031368494034 0.05 0.003327118931338191
56 0.04986295476555824 0.05 0.0031849066726863384
57 0.04878685623407364 0.05 0.003048922400921583
58 0.047753795981407166 0.05 0.0029211677610874176
59 0.0467490553855896 0.05 0.0027995381969958544
60 0.04577578976750374 0.05 0.002684184815734625
61 0.044825952500104904 0.05 0.002573947887867689
62 0.04391225054860115 0.05 0.0024700863286852837
63 0.04301660880446434 0.05 0.0023703533224761486
64 0.04215458407998085 0.05 0.0022763044107705355
65 0.04130901023745537 0.05 0.0021858999971300364
66 0.040493592619895935 0.05 0.0021004548761993647
67 0.03969432786107063 0.05 0.0020183552987873554
68 0.03892166540026665 0.05 0.0019405444618314505
69 0.03817236050963402 0.05 0.0018665463430806994
70 0.03743783384561539 0.05 0.0017954036593437195
71 0.03672674670815468 0.05 0.0017278485465794802
72 0.03603333979845047 0.05 0.0016632203478366137
73 0.03535700589418411 0.05 0.0016013700515031815
74 0.03469717130064964 0.05 0.001542158075608313
75 0.034056149423122406 0.05 0.0014857021160423756
76 0.03343220427632332 0.05 0.0014317616587504745
77 0.032821398228406906 0.05 0.0013799231965094805
78 0.03222978860139847 0.05 0.0013306248001754284
79 0.0316462516784668 0.05 0.001282877754420042
80 0.031081868335604668 0.05 0.001237527816556394
81 0.030531229451298714 0.05 0.0011940684635192156
82 0.029993949458003044 0.05 0.0011524127330631018
83 0.029472244903445244 0.05 0.0011126719182357192
84 0.028959134593605995 0.05 0.001074266154319048
85 0.028456220403313637 0.05 0.0010372778633609414
86 0.027969537302851677 0.05 0.0010021004127338529
87 0.027492301538586617 0.05 0.0009681950323283672
88 0.027025898918509483 0.05 0.000935623305849731
89 0.026570718735456467 0.05 0.000904372485820204
90 0.026128962635993958 0.05 0.0008745507220737636
91 0.025692671537399292 0.05 0.0008455888601019979
92 0.025268061086535454 0.05 0.0008178704883903265
93 0.0248548723757267 0.05 0.0007913412409834564
94 0.024450620636343956 0.05 0.0007658090908080339
95 0.02405528910458088 0.05 0.000741245225071907
96 0.023664839565753937 0.05 0.000717377639375627
97 0.023288579657673836 0.05 0.0006947470246814191
98 0.022911373525857925 0.05 0.0006724236300215125
99 0.02255154587328434 0.05 0.0006514684064313769
tuning, 0, 0.0003565237857401371
tuning, 1, 0.0003565237857401371
tuning, 2, 0.0003541347978170961
tuning, 3, 0.0003500937600620091
tuning, 4, 0.00034487590892240405
tuning, 5, 0.00033891492057591677
tuning, 6, 0.0003328977036289871
tuning, 7, 0.0003260739613324404
tuning, 8, 0.0003186744579579681
tuning, 9, 0.00031128906994126737
tuning, 10, 0.00030363653786480427
tuning, 11, 0.0002959477133117616
tuning, 12, 0.00028908095555379987
tuning, 13, 0.00028232025215402246
tuning, 14, 0.0002758532646112144
tuning, 15, 0.0002701164048630744
tuning, 16, 0.00026479276129975915
tuning, 17, 0.0002591537486296147
tuning, 18, 0.0002538175613153726
tuning, 19, 0.00024871272034943104
tuning, 20, 0.00024387211306020617
tuning, 21, 0.0002393993636360392
tuning, 22, 0.00023509972379542887
tuning, 23, 0.00023077763034962118
tuning, 24, 0.00022662567789666355
tuning, 25, 0.0002225523057859391
tuning, 26, 0.0002186760539188981
tuning, 27, 0.00021519450820051134
tuning, 28, 0.00021152719273231924
tuning, 29, 0.0002081484126392752
tuning, 30, 0.0002049230970442295
tuning, 31, 0.00020200491417199373
tuning, 32, 0.0001992651668842882
tuning, 33, 0.0001966071140486747
tuning, 34, 0.00019402096222620457
tuning, 35, 0.0001914895692607388
tuning, 36, 0.0001890663697849959
tuning, 37, 0.0001864671939983964
tuning, 38, 0.00018416918464936316
tuning, 39, 0.00018198441830463707
tuning, 40, 0.00017968959582503885
tuning, 41, 0.0001776948047336191
tuning, 42, 0.00017565148300491273
tuning, 43, 0.00017362821381539106
tuning, 44, 0.00017177601694129407
tuning, 45, 0.00016995432088151574
tuning, 46, 0.0001681217981968075
tuning, 47, 0.00016640822286717594
tuning, 48, 0.00016482359205838293
tuning, 49, 0.000163281787536107
tuning, 50, 0.00016183106345124543
tuning, 51, 0.00016045539814513177
tuning, 52, 0.0001591142063261941
tuning, 53, 0.00015784148126840591
tuning, 54, 0.00015665963292121887
tuning, 55, 0.0001554838672745973
tuning, 56, 0.0001543351827422157
tuning, 57, 0.00015326638822443783
tuning, 58, 0.00015225725655909628
tuning, 59, 0.00015126615471672267
tuning, 60, 0.00015033506497275084
tuning, 61, 0.00014948847820051014
tuning, 62, 0.0001486130931880325
tuning, 63, 0.00014775035378988832
tuning, 64, 0.00014699844177812338
tuning, 65, 0.0001462940708734095
tuning, 66, 0.00014560073032043874
tuning, 67, 0.00014493832713924348
tuning, 68, 0.00014432225725613534
tuning, 69, 0.00014376822218764573
tuning, 70, 0.00014324030780699104
tuning, 71, 0.0001427030365448445
tuning, 72, 0.00014220885350368917
tuning, 73, 0.00014182359154801816
tuning, 74, 0.00014138207188807428
tuning, 75, 0.00014099331747274846
tuning, 76, 0.0001406251103617251
tuning, 77, 0.00014031630416866392
tuning, 78, 0.00014001647650729865
tuning, 79, 0.00013975365436635911
tuning, 80, 0.00013950542779639363
tuning, 81, 0.00013928940461482853
tuning, 82, 0.00013908289838582277
tuning, 83, 0.00013888998364564031
tuning, 84, 0.00013874025898985565
tuning, 85, 0.00013860251056030393
tuning, 86, 0.00013847165973857045
tuning, 87, 0.00013835383288096637
tuning, 88, 0.00013825687346979976
tuning, 89, 0.00013818976003676653
tuning, 90, 0.0001381139736622572
tuning, 91, 0.0001380546746077016
tuning, 92, 0.0001380146131850779
tuning, 93, 0.0001379755703965202
tuning, 94, 0.00013795867562294006
tuning, 95, 0.0001379281748086214
tuning, 96, 0.00013792338722851127
tuning, 97, 0.00013792327081318945
tuning, 98, 0.00013789863442070782
tuning, 99, 0.0001379025197820738
inversion time : 103.6186773777008
0, 0.1123598963022232

 10%|███████████████████████████▌                                                                                                                                                                                                                                                       | 1/10 [01:52<16:53, 112.59s/it]
2, 0.1047874316573143
3, 0.09046947956085205
4, 0.07124532759189606
5, 0.050200194120407104
6, 0.03146931529045105
7, 0.020328497514128685
8, 0.014865212142467499
9, 0.012926961295306683
10, 0.012798462063074112
11, 0.013364054262638092
12, 0.014018509536981583
13, 0.014490477740764618
14, 0.014691445045173168
15, 0.014629057608544827
16, 0.014348957687616348
17, 0.013909265398979187
18, 0.013365055434405804
19, 0.012757371179759502
20, 0.012116160243749619
21, 0.011461629532277584
22, 0.010808090679347515
23, 0.010165004059672356
24, 0.009541492909193039
25, 0.008945243433117867
26, 0.008383482694625854
27, 0.007862793281674385
28, 0.00738730002194643
29, 0.006958581507205963
30, 0.006577070336788893
31, 0.006238870322704315
32, 0.005937954410910606
33, 0.005669072270393372
34, 0.005425109528005123
35, 0.005200214218348265
36, 0.004989920184016228
37, 0.004790998995304108
38, 0.004601834341883659
39, 0.004421250429004431
40, 0.004248850978910923
41, 0.004084654152393341
42, 0.003929005935788155
43, 0.003782929852604866
44, 0.0036469195038080215
45, 0.0035208920016884804
46, 0.003404970047995448
47, 0.003299018833786249
48, 0.00320231425575912
49, 0.0031141776125878096
50, 0.0030337877105921507
51, 0.0029600965790450573
52, 0.0028918031603097916
53, 0.002827951218932867
54, 0.0027676343452185392
55, 0.002710538450628519
56, 0.0026564961299300194
57, 0.002605029847472906
58, 0.0025558453053236008
59, 0.0025086011737585068
60, 0.0024633738212287426
61, 0.0024201541673392057
62, 0.0023789554834365845
63, 0.0023398278281092644
64, 0.00230256374925375
65, 0.002267204923555255
66, 0.0022334782406687737
67, 0.002201175084337592
68, 0.002170426771044731
69, 0.0021408868487924337
70, 0.0021124090999364853
71, 0.0020849411375820637
72, 0.0020584440790116787
73, 0.002032642951235175
74, 0.002007646020501852
75, 0.0019835156854242086
76, 0.0019600815139710903
77, 0.0019372071838006377
78, 0.001914957887493074
79, 0.001893369248136878
80, 0.0018724014516919851
81, 0.0018520872108638287
82, 0.0018323393305763602
83, 0.0018131782999262214
84, 0.0017945903819054365
85, 0.0017765245866030455
86, 0.0017588892951607704
87, 0.0017417052295058966
88, 0.0017249470110982656
89, 0.0017085911240428686
90, 0.00169255374930799
91, 0.001676845597103238
92, 0.0016614667838439345
93, 0.001646425575017929
94, 0.0016317013651132584
95, 0.0016172872856259346
96, 0.0016031882259994745
97, 0.0015894448151811957
98, 0.0015759705565869808
99, 0.0015628456603735685
100, 0.001549960346892476
101, 0.0015372978523373604
102, 0.0015248846029862761
103, 0.0015127328224480152
104, 0.0015008671907708049
105, 0.0014891577884554863
106, 0.0014776960015296936
107, 0.0014665419002994895
108, 0.0014555284287780523
109, 0.0014447446446865797
110, 0.0014342226786538959
111, 0.001423863461241126
112, 0.0014137527905404568
113, 0.0014038204681128263
114, 0.0013941226061433554
115, 0.0013845044886693358
116, 0.0013751850929111242
117, 0.0013660540571436286
118, 0.001357172499410808
119, 0.0013485144590958953
120, 0.0013399948365986347
121, 0.0013316295808181167
122, 0.0013234391808509827
123, 0.001315392437390983
124, 0.001307615078985691
125, 0.0012999912723898888
126, 0.0012925188057124615
127, 0.0012852530926465988
128, 0.0012781217228621244
129, 0.0012711912859231234
130, 0.0012644235976040363
131, 0.0012578328605741262
132, 0.0012514278059825301
133, 0.0012451524380594492
134, 0.0012390947667881846
135, 0.0012331444304436445
136, 0.0012273697648197412
137, 0.0012217818293720484
138, 0.0012163625797256827
139, 0.0012110740644857287
140, 0.0012059726286679506
141, 0.0012009781785309315
142, 0.0011960878036916256
143, 0.0011913995258510113
144, 0.0011868029832839966
145, 0.0011824436951428652
146, 0.0011781796347349882
147, 0.00117403082549572
148, 0.0011700604809448123
149, 0.00116621027700603
150, 0.001162440748885274
151, 0.0011588784400373697
152, 0.0011553935473784804
153, 0.0011520800180733204
154, 0.0011488175950944424
155, 0.001145757269114256
156, 0.001142806257121265
157, 0.0011399599025025964
158, 0.0011372234439477324
159, 0.0011346156243234873
160, 0.0011321030324324965
161, 0.0011297123273834586
162, 0.0011274234857410192
163, 0.0011252248659729958
164, 0.0011232191463932395
165, 0.0011211903765797615
166, 0.0011193285463377833
167, 0.0011175412219017744
168, 0.0011159076821058989
169, 0.0011142878793179989
170, 0.0011128074256703258
171, 0.0011113861110061407
172, 0.0011100680567324162
173, 0.0011088502360507846
174, 0.001107692951336503
175, 0.0011066398583352566
176, 0.001105650095269084
177, 0.0011047202860936522
178, 0.001103876275010407
179, 0.0011030832538381219
180, 0.0011023844126611948
181, 0.0011017260840162635
182, 0.0011011426104232669
183, 0.0011006251443177462
184, 0.0011001675156876445
185, 0.0010997176868841052
186, 0.0010993158211931586
187, 0.001099025597795844
188, 0.001098772743716836
189, 0.0010985389817506075
190, 0.00109834352042526
191, 0.0010981837986037135
192, 0.0010980269871652126
193, 0.001097925822250545
194, 0.0010978312930092216
195, 0.0010977690108120441
196, 0.001097717322409153
197, 0.001097693108022213
198, 0.0010976926423609257
199, 0.0010976657504215837
0 2.895458459854126 0.05 8.142168045043945
1 2.7242069244384766 0.05 7.207517147064209
2 2.545314073562622 0.05 6.291993141174316
3 2.3505640029907227 0.05 5.3659868240356445
4 2.1117095947265625 0.05 4.330856800079346
5 1.746235966682434 0.05 2.9614968299865723
6 1.31072199344635 0.05 1.668501615524292
7 0.9743664860725403 0.05 0.9220408201217651
8 0.7708680629730225 0.05 0.5771193504333496
9 0.6471421718597412 0.05 0.40672871470451355
10 0.5521070957183838 0.05 0.29604119062423706
11 0.4751139283180237 0.05 0.2192305028438568
