
  0%|                                                                                                                                                                                                                                                                                            | 0/10 [00:00<?, ?it/s]
0, 0.1364392638206482
1, 0.1364392638206482
2, 0.12979227304458618
3, 0.1169479489326477
4, 0.09893616288900375
5, 0.07756023854017258
6, 0.055496152490377426
7, 0.03876933082938194
8, 0.027032777667045593
9, 0.019468341022729874
10, 0.01501347403973341
11, 0.012621281668543816
12, 0.011441591195762157
13, 0.01087709330022335
14, 0.010553287342190742
15, 0.010261154733598232
16, 0.00989639014005661
17, 0.00942770205438137
18, 0.008864468894898891
19, 0.008234617300331593
20, 0.0075740511529147625
21, 0.006915467791259289
22, 0.006289714947342873
23, 0.005724509712308645
24, 0.005234000273048878
25, 0.004822969436645508
26, 0.004488826263695955
27, 0.004223410040140152
28, 0.004013470374047756
29, 0.0038443286903202534
30, 0.0037005245685577393
31, 0.003569067222997546
32, 0.003439398482441902
33, 0.0033044256269931793
34, 0.0031605164986103773
35, 0.0030070978682488203
36, 0.0028458028100430965
37, 0.0026799465995281935
38, 0.0025135125033557415
39, 0.0023507517762482166
40, 0.002195649780333042
41, 0.002051169518381357
42, 0.0019197416258975863
43, 0.001802219427190721
44, 0.0016984983813017607
45, 0.0016075894236564636
46, 0.0015279477229341865
47, 0.0014575583627447486
48, 0.0013943383237347007
49, 0.0013363782782107592
50, 0.0012820892734453082
51, 0.0012305350974202156
52, 0.0011811635922640562
53, 0.0011337603209540248
54, 0.0010885121300816536
55, 0.001045588287524879
56, 0.0010051942663267255
57, 0.0009675062028691173
58, 0.0009326096042059362
59, 0.0009002782171592116
60, 0.0008702719351276755
61, 0.000842231442220509
62, 0.00081585010048002
63, 0.0007908012485131621
64, 0.0007668650941923261
65, 0.0007438426255248487
66, 0.0007217001402750611
67, 0.0007004322251304984
68, 0.0006801445269957185
69, 0.0006608997937291861
70, 0.0006428478518500924
71, 0.000625943997874856
72, 0.0006102364277467132
73, 0.0005956293316558003
74, 0.0005820826045237482
75, 0.000569429132156074
76, 0.000557560590095818
77, 0.0005463852430693805
78, 0.0005357913323678076
79, 0.0005256820004433393
80, 0.0005160017171874642
81, 0.0005067272577434778
82, 0.0004978382494300604
83, 0.0004893462173640728
84, 0.00048123305896297097
85, 0.00047348340740427375
86, 0.00046607106924057007
87, 0.00045900471741333604
88, 0.0004522372910287231
89, 0.00044574844650924206
90, 0.00043953239219263196
91, 0.0004335639241617173
92, 0.0004278135020285845
93, 0.00042227929225191474
94, 0.0004169289895799011
95, 0.00041174967191182077
96, 0.00040674000047147274
97, 0.0004018674080725759
98, 0.00039715145248919725
99, 0.0003925664350390434
100, 0.00038809687248431146
101, 0.0003837644471786916
102, 0.0003795771626755595
103, 0.000375511241145432
104, 0.0003715683415066451
105, 0.00036774075124412775
106, 0.000364037899998948
107, 0.0003604306257329881
108, 0.0003569149412214756
109, 0.0003534667775966227
110, 0.0003501033643260598
111, 0.0003468241775408387
112, 0.0003436124825384468
113, 0.0003404735471121967
114, 0.00033739052014425397
115, 0.0003344092983752489
116, 0.0003314677160233259
117, 0.0003285997954662889
118, 0.000325804459862411
119, 0.00032306506182067096
120, 0.0003203829692211002
121, 0.00031775355455465615
122, 0.0003151604032609612
123, 0.00031262447009794414
124, 0.0003101446491200477
125, 0.0003077034780289978
126, 0.0003053148975595832
127, 0.0003029629006050527
128, 0.00030065778992138803
129, 0.0002983991289511323
130, 0.0002961801365017891
131, 0.00029400252969935536
132, 0.00029188592452555895
133, 0.0002897859667427838
134, 0.00028772241785191
135, 0.00028569228015840054
136, 0.000283709610812366
137, 0.0002817416097968817
138, 0.0002798287896439433
139, 0.00027792685432359576
140, 0.0002760771312750876
141, 0.0002742575015872717
142, 0.00027245920500718057
143, 0.000270697521045804
144, 0.0002689641260076314
145, 0.0002672462142072618
146, 0.00026557440287433565
147, 0.00026392191648483276
148, 0.0002623062173370272
149, 0.00026071371394209564
150, 0.000259138090768829
151, 0.000257593987043947
152, 0.0002560776483733207
153, 0.0002545811585150659
154, 0.00025310739874839783
155, 0.0002516511594876647
156, 0.00025022157933562994
157, 0.00024881254648789763
158, 0.00024741736706346273
159, 0.0002460541727486998
160, 0.00024469709023833275
161, 0.0002433577028568834
162, 0.0002420347009319812
163, 0.00024073086387943476
164, 0.00023943293490447104
165, 0.00023815687745809555
166, 0.00023690237139817327
167, 0.00023564393632113934
168, 0.00023440568475052714
169, 0.0002331851574126631
170, 0.00023197135305963457
171, 0.00023077665537130088
172, 0.00022958537738304585
173, 0.00022840806923341006
174, 0.0002272508281748742
175, 0.00022609827283304185
176, 0.00022494708537124097
177, 0.00022380074369721115
178, 0.00022266979794949293
179, 0.00022154446924105287
180, 0.0002204344782512635
181, 0.00021934413234703243
182, 0.00021828255557920784
183, 0.0002172276726923883
184, 0.00021617526363115758
185, 0.0002151505323126912
186, 0.00021412811474874616
187, 0.000213128631003201
188, 0.00021213461877778172
189, 0.00021114395349286497
190, 0.0002101764257531613
191, 0.0002092158392770216
192, 0.0002082748687826097
193, 0.00020734469580929726
194, 0.00020643134484998882
195, 0.0002055368822766468
196, 0.00020465304260142148
197, 0.00020376930478960276
198, 0.00020291660621296614
199, 0.00020205711189191788
200, 0.00020121333363931626
201, 0.00020038614457007498
202, 0.00019957422045990825
203, 0.00019875296857208014
204, 0.00019795793923549354
205, 0.00019717102986760437
206, 0.00019639839592855424
207, 0.00019563059322535992
208, 0.0001948713033925742
209, 0.00019412484834901989
210, 0.00019338028505444527
211, 0.00019265412993263453
212, 0.00019193976186215878
213, 0.00019123335368931293
214, 0.00019052825518883765
215, 0.0001898427726700902
216, 0.0001891539868665859
217, 0.000188475038157776
218, 0.00018781078688334674
219, 0.00018714982434175909
220, 0.00018650262791197747
221, 0.00018585915677249432
222, 0.00018521891615819186
223, 0.0001846005325205624
224, 0.0001839824253693223
225, 0.00018337051733396947
226, 0.00018277403432875872
227, 0.00018218092736788094
228, 0.00018159663886763155
229, 0.00018101725436281413
230, 0.0001804457133403048
231, 0.0001798895391402766
232, 0.00017933353956323117
233, 0.0001787839428288862
234, 0.00017823465168476105
235, 0.00017770120757631958
236, 0.00017717339505907148
237, 0.00017664469487499446
238, 0.00017612881492823362
239, 0.0001756076089804992
240, 0.00017510663019493222
241, 0.00017460377421230078
242, 0.00017410711734555662
243, 0.00017361412756145
244, 0.00017313046555500478
245, 0.0001726559567032382
246, 0.00017218603170476854
247, 0.0001717206323519349
248, 0.00017125933663919568
249, 0.0001707941119093448
250, 0.00017033470794558525
251, 0.00016989237337838858
252, 0.0001694493112154305
253, 0.00016901367052923888
254, 0.00016857664741110057
255, 0.00016815017443150282
256, 0.00016772953676991165
257, 0.00016730248171370476
258, 0.00016688949835952371
259, 0.00016647651500534266
260, 0.00016606684948783368
261, 0.00016566494014114141
262, 0.00016526909894309938
263, 0.00016486708773300052
264, 0.00016447923553641886
265, 0.00016409842646680772
266, 0.0001637083914829418
267, 0.0001633393985684961
268, 0.0001629600883461535
269, 0.00016258332470897585
270, 0.0001622236450202763
271, 0.0001618616806808859
272, 0.0001614931970834732
273, 0.00016114224854391068
274, 0.00016079185297712684
275, 0.00016043276991695166
276, 0.00016009027604013681
277, 0.00015975625137798488
278, 0.000159411589265801
279, 0.00015907129272818565
280, 0.00015873924712650478
281, 0.00015841676213312894
282, 0.00015808700118213892
283, 0.00015777064254507422
284, 0.00015744176926091313
285, 0.00015713105676695704
286, 0.00015681373770348728
287, 0.0001565033453516662
288, 0.00015619408804923296
289, 0.0001558854419272393
290, 0.00015558948507532477
291, 0.0001552840694785118
292, 0.00015499282744713128
293, 0.00015468793571926653
294, 0.00015439995331689715
295, 0.0001541049568913877
296, 0.00015381698904093355
297, 0.00015353334310930222
298, 0.00015325126878451556
299, 0.00015297169738914818
300, 0.00015269170398823917
301, 0.00015240903303492814
302, 0.00015213683946058154
303, 0.00015186116797849536
304, 0.0001515945914434269
305, 0.00015132021508179605
306, 0.0001510543515905738
307, 0.00015078499563969672
308, 0.00015051569789648056
309, 0.00015026463370304555
310, 0.00014999392442405224
311, 0.00014973546785768121
312, 0.00014947258750908077
313, 0.0001492124720243737
314, 0.00014895477215759456
315, 0.00014869667938910425
316, 0.00014844280667603016
317, 0.00014818791532889009
318, 0.00014792979345656931
319, 0.00014767497486900538
320, 0.00014740847109351307
321, 0.0001471548166591674
322, 0.00014689870295114815
323, 0.00014665383787360042
324, 0.00014639667642768472
325, 0.0001461500214645639
326, 0.00014590272621717304
327, 0.00014565802121069282
328, 0.00014541816199198365
329, 0.00014516657392960042
330, 0.00014493217167910188
331, 0.00014469987945631146
332, 0.00014445846318267286
333, 0.00014422232925426215
334, 0.00014398775238078088
335, 0.00014375832688529044
336, 0.00014352393918670714
337, 0.00014330309932120144
338, 0.00014307702076621354
339, 0.0001428636023774743
340, 0.0001426383387297392
341, 0.00014242602628655732
342, 0.0001422200002707541
343, 0.0001420135668013245
344, 0.00014180477592162788
345, 0.00014160726277623326
346, 0.0001414091675542295
347, 0.00014121425920166075
348, 0.00014102301793172956
349, 0.0001408402604283765
350, 0.0001406536321155727
351, 0.0001404814829584211
352, 0.00014030220336280763
353, 0.00014013276086188853
354, 0.0001399623870383948
355, 0.00013979419600218534
356, 0.00013963498349767178
357, 0.00013947825937066227
358, 0.00013931043213233352
359, 0.0001391585828969255
360, 0.00013900789781473577
361, 0.00013886307715438306
362, 0.00013871240662410855
363, 0.0001385669456794858
364, 0.00013842098996974528
365, 0.00013828155351802707
366, 0.00013814544945489615
367, 0.00013801341992802918
368, 0.00013787443458568305
369, 0.00013774741091765463
370, 0.00013761551235802472
371, 0.0001374895073240623
372, 0.00013736399705521762
373, 0.0001372381957480684
374, 0.00013711268547922373
375, 0.00013700031558983028
376, 0.00013688091712538153
377, 0.0001367661461699754
378, 0.0001366519572911784
379, 0.00013654067879542708
380, 0.00013643517741002142
381, 0.00013632437912747264
382, 0.00013621168909594417
383, 0.000136110233142972
384, 0.00013600905367638916
385, 0.00013590446906164289
386, 0.00013580755330622196
387, 0.0001357196451863274
388, 0.00013561912055592984
389, 0.0001355278945993632
390, 0.00013543583918362856
391, 0.00013534545723814517
392, 0.00013525530812330544
393, 0.00013516352919396013
394, 0.00013508330448530614
395, 0.00013499564374797046
396, 0.00013491176650859416
397, 0.00013483277871273458
398, 0.00013475253945216537
399, 0.0001346731005469337
400, 0.00013459811452776194
401, 0.0001345258206129074
402, 0.00013445182412397116
403, 0.00013437983579933643
404, 0.00013430547551251948
405, 0.00013423580094240606
406, 0.00013416868750937283
407, 0.00013410145766101778
408, 0.0001340384769719094
409, 0.00013397261500358582
410, 0.00013391098764259368
411, 0.00013384700287133455
412, 0.00013379337906371802
413, 0.0001337330904789269
414, 0.00013367402425501496
415, 0.000133615976665169
416, 0.0001335682172793895
417, 0.00013351536472328007
418, 0.0001334636763203889
419, 0.00013341197336558253
420, 0.00013336323900148273
421, 0.0001333129039267078
422, 0.00013326923362910748
423, 0.0001332242100033909
424, 0.00013317225966602564
425, 0.0001331295061390847
426, 0.00013308535562828183
427, 0.000133050256408751
428, 0.00013301031140144914
429, 0.0001329688966507092
430, 0.000132928165839985
431, 0.00013289213529787958
432, 0.00013285651220940053
433, 0.00013281710562296212
434, 0.00013278343249112368
435, 0.00013275493984110653
436, 0.00013272158685140312
437, 0.00013268805923871696
438, 0.00013265605957712978
439, 0.00013262839638628066
440, 0.00013259888510219753
441, 0.00013256989768706262
442, 0.00013254756049718708
443, 0.0001325229532085359
444, 0.0001324962213402614
445, 0.0001324745244346559
446, 0.00013244678848423064
447, 0.00013242318527773023
448, 0.0001323997275903821
449, 0.00013237539678812027
450, 0.00013235861842986196
451, 0.0001323386823059991
452, 0.0001323204196523875
453, 0.00013230237527750432
454, 0.00013228473835624754
455, 0.00013227065210230649
456, 0.00013225289876572788
457, 0.00013223520363681018
458, 0.00013221774133853614
459, 0.00013220736582297832
460, 0.00013219521497376263
461, 0.0001321833551628515
462, 0.00013217113155405968
463, 0.0001321595482295379
464, 0.0001321492891293019
465, 0.00013214271166361868
466, 0.00013212957128416747
467, 0.0001321161980740726
468, 0.00013210900942794979
469, 0.0001321032177656889
470, 0.0001320921874139458
471, 0.00013209093594923615
472, 0.000132079774630256
473, 0.0001320754672633484
474, 0.00013206801668275148
475, 0.00013206583389546722
476, 0.00013205809227656573
477, 0.00013205221330281347
478, 0.00013204777496866882
479, 0.00013204224524088204
480, 0.00013203886919654906
481, 0.0001320390001637861
482, 0.00013203159323893487
483, 0.000132028988446109
484, 0.00013202964328229427
485, 0.0001320285809924826
486, 0.00013202219270169735
487, 0.00013201814726926386
488, 0.00013202229456510395
489, 0.00013202131958678365
490, 0.00013201612455304712
491, 0.00013201840920373797
492, 0.00013201555702835321
493, 0.00013202152331359684
494, 0.0001320164155913517
495, 0.0001320132869295776
496, 0.00013201340334489942
497, 0.0001320161100011319
498, 0.0001320134470006451
499, 0.00013201280671637505
0 2.6236214637756348 0.05 7.881318092346191
1 2.462693452835083 0.05 6.944120407104492
2 2.293921947479248 0.05 6.024954795837402
3 2.093683958053589 0.05 5.019018173217773
4 1.8242954015731812 0.05 3.8105428218841553
5 1.4279218912124634 0.05 2.334562301635742
6 0.987949788570404 0.05 1.1175483465194702
7 0.6630632281303406 0.05 0.5033921599388123
8 0.5336086750030518 0.05 0.3260185122489929
9 0.4436083734035492 0.05 0.225318044424057
10 0.3746773302555084 0.05 0.1607353389263153
11 0.3250002861022949 0.05 0.12093834578990936
12 0.2857648432254791 0.05 0.0935005396604538
13 0.2539309561252594 0.05 0.07382914423942566
14 0.22852128744125366 0.05 0.059792935848236084
15 0.20852790772914886 0.05 0.04978802427649498
16 0.19262389838695526 0.05 0.042483165860176086
17 0.17963537573814392 0.05 0.0369470939040184
18 0.168757826089859 0.05 0.032608017325401306
19 0.159407839179039 0.05 0.02909483015537262
20 0.15122972428798676 0.05 0.026186103001236916
21 0.14397962391376495 0.05 0.023735515773296356
22 0.13748383522033691 0.05 0.02164212055504322
23 0.13160452246665955 0.05 0.01983070559799671
24 0.12624798715114594 0.05 0.0182492695748806
25 0.12133172154426575 0.05 0.016855638474225998
26 0.11680509150028229 0.05 0.015621406026184559
27 0.11261695623397827 0.05 0.014521253295242786
28 0.108712337911129 0.05 0.013531756587326527
29 0.10509864240884781 0.05 0.012647094205021858
30 0.10169418901205063 0.05 0.01184101216495037
31 0.09850873798131943 0.05 0.011110817082226276
32 0.0955171287059784 0.05 0.0104462169110775
33 0.09270471334457397 0.05 0.009840114042162895
34 0.09003543108701706 0.05 0.009281612932682037
35 0.08750168234109879 0.05 0.008766562677919865
36 0.08509442955255508 0.05 0.008290844038128853
37 0.08282773196697235 0.05 0.007855033501982689
38 0.08064199239015579 0.05 0.007445930503308773
39 0.07856142520904541 0.05 0.007066676858812571
40 0.07657808065414429 0.05 0.006714372429996729
41 0.07466650009155273 0.05 0.006383343134075403
42 0.07284428924322128 0.05 0.00607557687908411
43 0.07108240574598312 0.05 0.005785232409834862
44 0.06939437985420227 0.05 0.005513725336641073
45 0.06776732206344604 0.05 0.005258200690150261
46 0.0662035271525383 0.05 0.005018324591219425
47 0.06467711180448532 0.05 0.004789583384990692
48 0.06322523206472397 0.05 0.004576962441205978
49 0.06180362403392792 0.05 0.004373452160507441
50 0.060437798500061035 0.05 0.004182286560535431
51 0.059111129492521286 0.05 0.004000691697001457
52 0.0578402616083622 0.05 0.0038305141497403383
53 0.05658885836601257 0.05 0.0036665566731244326
54 0.05538798123598099 0.05 0.0035125913564115763
55 0.054221946746110916 0.05 0.00336625287309289
56 0.05310604348778725 0.05 0.0032291216775774956
57 0.051986485719680786 0.05 0.003094407031312585
58 0.050924014300107956 0.05 0.002969216089695692
59 0.0498955063521862 0.05 0.0028504894580692053
60 0.048883795738220215 0.05 0.0027360650710761547
61 0.047908905893564224 0.05 0.0026280225720256567
62 0.046959664672613144 0.05 0.0025249135214835405
63 0.04604034870862961 0.05 0.002427021972835064
64 0.04513600468635559 0.05 0.0023326133377850056
65 0.044254496693611145 0.05 0.0022423907648772
66 0.04342906177043915 0.05 0.0021595207508653402
67 0.04257481172680855 0.05 0.0020754009019583464
68 0.04178742319345474 0.05 0.001999344676733017
69 0.04099602997303009 0.05 0.0019243325805291533
70 0.0402340441942215 0.05 0.0018534630071371794
71 0.03949451819062233 0.05 0.0017859535291790962
72 0.038762398064136505 0.05 0.0017203541938215494
73 0.038057371973991394 0.05 0.0016583421966060996
74 0.037366487085819244 0.05 0.0015986780636012554
75 0.03669944405555725 0.05 0.0015421105781570077
76 0.0360400453209877 0.05 0.001487192464992404
77 0.03541021794080734 0.05 0.001435666810721159
78 0.034771326929330826 0.05 0.0013843280030414462
79 0.034174539148807526 0.05 0.0013372169341892004
80 0.03357752040028572 0.05 0.001290903426706791
81 0.03299649432301521 0.05 0.0012466143816709518
82 0.032437216490507126 0.05 0.0012047133641317487
83 0.03187146410346031 0.05 0.0011630558874458075
84 0.03135254234075546 0.05 0.0011254913406446576
85 0.030813023447990417 0.05 0.0010870893020182848
86 0.03030727617442608 0.05 0.0010516962502151728
87 0.029794273898005486 0.05 0.0010163941187784076
88 0.0293041430413723 0.05 0.0009832289069890976
89 0.02882605418562889 0.05 0.0009514082339592278
90 0.028348343446850777 0.05 0.000920135760679841
91 0.027895458042621613 0.05 0.00089097092859447
92 0.027446402236819267 0.05 0.000862516462802887
93 0.027006639167666435 0.05 0.0008350983262062073
94 0.026581905782222748 0.05 0.0008090377086773515
95 0.026150284335017204 0.05 0.0007829776732251048
96 0.025741977617144585 0.05 0.0007587180007249117
97 0.025341801345348358 0.05 0.0007353117689490318
98 0.0249492097645998 0.05 0.0007127054850570858
99 0.024558089673519135 0.05 0.0006905349437147379
tuning, 0, 0.00017732297419570386
tuning, 1, 0.00017732297419570386
tuning, 2, 0.00017572233628015965
tuning, 3, 0.00017281346663367003
tuning, 4, 0.0001691481884336099
tuning, 5, 0.0001650464691920206
tuning, 6, 0.00016060615598689765
tuning, 7, 0.00015590066323056817
tuning, 8, 0.00015115877613425255
tuning, 9, 0.0001467620168114081
tuning, 10, 0.0001425557566108182
tuning, 11, 0.00013887675595469773
tuning, 12, 0.0001359285379294306
tuning, 13, 0.00013299286365509033
tuning, 14, 0.00013039841724094003
tuning, 15, 0.00012786143634002656
tuning, 16, 0.0001257362891919911
tuning, 17, 0.000123363352031447
tuning, 18, 0.00012130653340136632
tuning, 19, 0.00011944441212108359
tuning, 20, 0.0001174712524516508
tuning, 21, 0.0001156796861323528
tuning, 22, 0.00011394903413020074
tuning, 23, 0.00011217025894438848
tuning, 24, 0.00011028124572476372
tuning, 25, 0.00010857025336008519
tuning, 26, 0.00010683910659281537
tuning, 27, 0.0001052919978974387
tuning, 28, 0.00010382118489360437
tuning, 29, 0.0001024411030812189
tuning, 30, 0.00010098726488649845
tuning, 31, 9.948648221325129e-05
tuning, 32, 9.818689431995153e-05
tuning, 33, 9.680654329713434e-05
tuning, 34, 9.540657629258931e-05
