
  0%|                                                                                                                                                                                                                                                                                            | 0/10 [00:00<?, ?it/s]
0, 0.1364392638206482
1, 0.1364392638206482
2, 0.1297921985387802
3, 0.11694826930761337
4, 0.09893622249364853
5, 0.07756032049655914
6, 0.05549618601799011
7, 0.03877311572432518
8, 0.027045434340834618
9, 0.019489765167236328
10, 0.01503828726708889
11, 0.012640593573451042
12, 0.011447696015238762
13, 0.010865122079849243
14, 0.01052359864115715
15, 0.010215516202151775
16, 0.009841504506766796
17, 0.00936706643551588
18, 0.008805136196315289
19, 0.008180982433259487
20, 0.007529835216701031
21, 0.00688031455501914
22, 0.006261847913265228
23, 0.005697154439985752
24, 0.005201023072004318
25, 0.004778006114065647
26, 0.0044254218228161335
27, 0.0041367057710886
28, 0.003902107011526823
29, 0.0037089246325194836
30, 0.003545264480635524
31, 0.003400741145014763
32, 0.0032659105490893126
33, 0.0031345884781330824
34, 0.003003022400662303
35, 0.002868887735530734
36, 0.0027321577072143555
37, 0.0025934872683137655
38, 0.002454797737300396
39, 0.002318159444257617
40, 0.00218593399040401
41, 0.002059824764728546
42, 0.0019417151343077421
43, 0.0018322989344596863
44, 0.0017321091145277023
45, 0.0016413473058491945
46, 0.0015595341101288795
47, 0.0014860350638628006
48, 0.001420253305695951
49, 0.001361226080916822
50, 0.0013079441851004958
51, 0.001259688986465335
52, 0.0012156234588474035
53, 0.0011752692516893148
54, 0.0011379107600077987
55, 0.0011033983901143074
56, 0.001071295002475381
57, 0.0010414163116365671
58, 0.0010135684860870242
59, 0.0009876962285488844
60, 0.000963584694545716
61, 0.0009412767249159515
62, 0.0009204860543832183
63, 0.0009013408562168479
64, 0.0008836283232085407
65, 0.0008672784315422177
66, 0.0008522474090568721
67, 0.000838348816614598
68, 0.000825630035251379
69, 0.0008138502016663551
70, 0.0008031057077459991
71, 0.0007932537118904293
72, 0.0007841315818950534
73, 0.0007758410647511482
74, 0.0007682661525905132
75, 0.0007613213965669274
76, 0.0007549206493422389
77, 0.000749129569157958
78, 0.0007438639877364039
79, 0.0007390609825961292
80, 0.0007347413338720798
81, 0.0007308183121494949
82, 0.000727346632629633
83, 0.0007242471911013126
84, 0.0007214583456516266
85, 0.0007189411553554237
86, 0.0007168439915403724
87, 0.000714975583832711
88, 0.0007133343606255949
89, 0.0007119926158338785
90, 0.0007108524441719055
91, 0.0007098936475813389
92, 0.0007091080769896507
93, 0.0007084938697516918
94, 0.0007080226205289364
95, 0.0007076744805090129
96, 0.0007074300665408373
97, 0.0007072699954733253
98, 0.0007071824511513114
99, 0.000707144383341074
0 2.4191009998321533 0.05 7.640505790710449
1 2.2590527534484863 0.05 6.662954330444336
2 2.091576099395752 0.05 5.711647987365723
3 1.8938192129135132 0.05 4.682643413543701
4 1.6141107082366943 0.05 3.401580810546875
5 1.2362488508224487 0.05 1.995381236076355
6 0.8045541048049927 0.05 0.8451321721076965
7 0.5749120712280273 0.05 0.4315359592437744
8 0.47206738591194153 0.05 0.29095256328582764
9 0.39231425523757935 0.05 0.2009473592042923
10 0.33781957626342773 0.05 0.14899912476539612
11 0.29667338728904724 0.05 0.11491357535123825
12 0.26517099142074585 0.05 0.09180495887994766
13 0.24007533490657806 0.05 0.07525047659873962
14 0.2195604145526886 0.05 0.06293935328722
15 0.20264168083667755 0.05 0.053613193333148956
16 0.18852490186691284 0.05 0.04640359431505203
17 0.17651687562465668 0.05 0.040680527687072754
18 0.16618536412715912 0.05 0.036057837307453156
19 0.1571206897497177 0.05 0.03223152831196785
20 0.14906327426433563 0.05 0.029010511934757233
21 0.1418367475271225 0.05 0.026265861466526985
22 0.13528259098529816 0.05 0.023894499987363815
23 0.1293116956949234 0.05 0.0218318123370409
24 0.1238522157073021 0.05 0.020027268677949905
25 0.11884208768606186 0.05 0.01843973621726036
26 0.11421613395214081 0.05 0.017032135277986526
27 0.1099410131573677 0.05 0.015780964866280556
28 0.10597511380910873 0.05 0.0146629698574543
29 0.10228116065263748 0.05 0.013658575713634491
30 0.09884070605039597 0.05 0.012755157425999641
31 0.09561341255903244 0.05 0.011935807764530182
32 0.09259330481290817 0.05 0.011193690821528435
33 0.08974409103393555 0.05 0.01051540207117796
34 0.08704761415719986 0.05 0.009892996400594711
35 0.08449503034353256 0.05 0.009321299381554127
36 0.0820779949426651 0.05 0.008795644156634808
37 0.07977280020713806 0.05 0.008308522403240204
38 0.07758042961359024 0.05 0.007858116179704666
39 0.07548987865447998 0.05 0.0074403188191354275
40 0.0734894797205925 0.05 0.007051223423331976
41 0.0715663805603981 0.05 0.006687014829367399
42 0.06972947716712952 0.05 0.006348146591335535
43 0.06796017289161682 0.05 0.00603007897734642
44 0.0662643238902092 0.05 0.005732890218496323
45 0.06462845951318741 0.05 0.005453329533338547
46 0.06305412948131561 0.05 0.005190882366150618
47 0.06154036521911621 0.05 0.004944635555148125
48 0.060069166123867035 0.05 0.0047110458835959435
49 0.0586642324924469 0.05 0.00449325330555439
50 0.05729242414236069 0.05 0.004285569302737713
51 0.05596635490655899 0.05 0.0040894802659749985
52 0.05469956621527672 0.05 0.003906446509063244
53 0.0534585565328598 0.05 0.0037312002386897802
54 0.052258867770433426 0.05 0.0035656122490763664
55 0.051103509962558746 0.05 0.003409695578739047
56 0.04997465759515762 0.05 0.0032607221510261297
57 0.04888549819588661 0.05 0.003120140638202429
58 0.04782871901988983 0.05 0.0029866998083889484
59 0.046801138669252396 0.05 0.002859742846339941
60 0.04580718278884888 0.05 0.0027395631186664104
61 0.04484301432967186 0.05 0.0026254497934132814
62 0.043901149183511734 0.05 0.002516320673748851
63 0.0429922491312027 0.05 0.0024132062681019306
64 0.04210619255900383 0.05 0.002314760349690914
65 0.04124459624290466 0.05 0.0022209985181689262
66 0.04040860757231712 0.05 0.0021318758372217417
67 0.03959628567099571 0.05 0.0020470244344323874
68 0.038803718984127045 0.05 0.001965897623449564
69 0.03802916035056114 0.05 0.0018881983123719692
70 0.03728751838207245 0.05 0.0018152694683521986
71 0.036557137966156006 0.05 0.0017448519356548786
72 0.03584866598248482 0.05 0.0016778772696852684
73 0.03516114130616188 0.05 0.0016141359228640795
74 0.03448683023452759 0.05 0.001552818575873971
75 0.03383514657616615 0.05 0.0014946869341656566
76 0.033193133771419525 0.05 0.0014385026879608631
77 0.0325714573264122 0.05 0.0013851237017661333
78 0.03196381777524948 0.05 0.001333925174549222
79 0.03137759864330292 0.05 0.001285445294342935
80 0.030801670625805855 0.05 0.001238690223544836
81 0.030241351574659348 0.05 0.0011940335389226675
82 0.029692472890019417 0.05 0.0011510837357491255
83 0.029163986444473267 0.05 0.0011104727163910866
84 0.028640713542699814 0.05 0.0010709810303524137
85 0.02813214622437954 0.05 0.0010332841193303466
86 0.027639193460345268 0.05 0.000997389666736126
87 0.027155160903930664 0.05 0.0009627619292587042
88 0.026683328673243523 0.05 0.0009295957861468196
89 0.02622363716363907 0.05 0.0008978421101346612
90 0.025771714746952057 0.05 0.0008671630639582872
91 0.025334954261779785 0.05 0.0008380200015380979
92 0.024901334196329117 0.05 0.0008095792727544904
93 0.024480978026986122 0.05 0.0007824771455489099
94 0.024078059941530228 0.05 0.0007569324225187302
95 0.02367877960205078 0.05 0.0007320365402847528
96 0.0232846699655056 0.05 0.0007078712806105614
97 0.022906020283699036 0.05 0.0006850360077805817
98 0.022529860958456993 0.05 0.0006627215771004558
99 0.022162258625030518 0.05 0.0006412718212231994
100 0.02180652879178524 0.05 0.0006208507111296058
101 0.0214563999325037 0.05 0.0006010738434270024
102 0.021116487681865692 0.05 0.0005821802187711
103 0.020779546350240707 0.05 0.0005637495778501034
104 0.020456956699490547 0.05 0.0005463816924020648
105 0.020136430859565735 0.05 0.0005293941358104348
106 0.01982317864894867 0.05 0.0005130512290634215
107 0.01951277069747448 0.05 0.0004971094313077629
108 0.019216835498809814 0.05 0.0004821452312171459
109 0.01892232522368431 0.05 0.0004674800729844719
110 0.018631579354405403 0.05 0.0004532246384769678
111 0.01834860071539879 0.05 0.0004395619034767151
112 0.018073396757245064 0.05 0.0004264750750735402
113 0.017802448943257332 0.05 0.0004137839423492551
114 0.01753869839012623 0.05 0.0004016139719169587
115 0.017279038205742836 0.05 0.0003898102731909603
116 0.01702261157333851 0.05 0.0003783262218348682
117 0.016774503514170647 0.05 0.0003673782339319587
118 0.016531100496649742 0.05 0.00035679410211741924
119 0.01629103347659111 0.05 0.00034650650923140347
120 0.01605498231947422 0.05 0.0003365377488080412
121 0.015827158465981483 0.05 0.00032705446938052773
122 0.015596376731991768 0.05 0.000317586149321869
123 0.015374313108623028 0.05 0.00030860689003020525
124 0.015162535943090916 0.05 0.0003001634613610804
125 0.014943921007215977 0.05 0.0002915702643804252
126 0.01473441906273365 0.05 0.0002834523911587894
127 0.014533953741192818 0.05 0.00027579203015193343
128 0.01432847697287798 0.05 0.00026804901426658034
129 0.014131537638604641 0.05 0.0002607311471365392
130 0.01393486000597477 0.05 0.00025352416560053825
131 0.013745800592005253 0.05 0.0002466915175318718
132 0.013557584956288338 0.05 0.00023998205142561346
133 0.013375404290854931 0.05 0.0002335758472327143
134 0.013191242702305317 0.05 0.00022718810942023993
135 0.01301608793437481 0.05 0.00022119487402960658
136 0.01284350361675024 0.05 0.00021536799613386393
137 0.01266775093972683 0.05 0.0002095140516757965
138 0.012501322664320469 0.05 0.00020404504903126508
139 0.012339255772531033 0.05 0.00019878888269886374
140 0.0121728191152215 0.05 0.00019346235785633326
141 0.012017816305160522 0.05 0.00018856680253520608
142 0.011859677731990814 0.05 0.0001836368755903095
143 0.011704321950674057 0.05 0.00017885728448163718
144 0.011552928015589714 0.05 0.00017426021804567426
145 0.011403637938201427 0.05 0.00016978564963210374
146 0.011259163729846478 0.05 0.000165510835358873
147 0.011113256216049194 0.05 0.00016124889953061938
148 0.010973910801112652 0.05 0.00015723056276328862
149 0.010831564664840698 0.05 0.00015317804354708642
150 0.010699190199375153 0.05 0.0001494569005444646
151 0.01056093629449606 0.05 0.00014561929856427014
152 0.010427737608551979 0.05 0.00014196927077136934
153 0.010298804379999638 0.05 0.00013848021626472473
154 0.010167351923882961 0.05 0.000134967704070732
155 0.010043403133749962 0.05 0.00013169701560400426
156 0.00991999451071024 0.05 0.00012848044571001083
157 0.009800991043448448 0.05 0.000125416336231865
158 0.00967719778418541 0.05 0.00012226816033944488
159 0.009557629004120827 0.05 0.00011926540173590183
160 0.00944124162197113 0.05 0.00011637840361800045
161 0.009329800494015217 0.05 0.00011364721285644919
162 0.009216386824846268 0.05 0.00011090101907029748
163 0.009105194360017776 0.05 0.00010824119817698374
164 0.008993246592581272 0.05 0.00010559592919889838
165 0.008890010416507721 0.05 0.000103185506304726
166 0.008780044503509998 0.05 0.00010064855450764298
167 0.008674790151417255 0.05 9.824988956097513e-05
168 0.008574113249778748 0.05 9.598262840881944e-05
169 0.00847559329122305 0.05 9.378953109262511e-05
170 0.008377713151276112 0.05 9.163577487925068e-05
171 0.008277981542050838 0.05 8.946702291723341e-05
172 0.008178271353244781 0.05 8.732469723327085e-05
173 0.00808700267225504 0.05 8.538652764400467e-05
174 0.007989536970853806 0.05 8.334074664162472e-05
175 0.007894237525761127 0.05 8.136441465467215e-05
176 0.007808190770447254 0.05 7.960034417919815e-05
177 0.007713469211012125 0.05 7.768080104142427e-05
178 0.007631022948771715 0.05 7.602907135151327e-05
179 0.007540086749941111 0.05 7.422783528454602e-05
180 0.0074579305946826935 0.05 7.261908467626199e-05
181 0.007369501516222954 0.05 7.09071900928393e-05
182 0.007286906708031893 0.05 6.932669930392876e-05
183 0.007211394142359495 0.05 6.789731560274959e-05
184 0.007124160882085562 0.05 6.626459071412683e-05
185 0.007041505537927151 0.05 6.473590474342927e-05
186 0.006971904542297125 0.05 6.34624739177525e-05
187 0.006886146031320095 0.05 6.191081774886698e-05
188 0.006811382714658976 0.05 6.0573780501727015e-05
189 0.006736393552273512 0.05 5.924736979068257e-05
190 0.006660754792392254 0.05 5.7924335123971105e-05
191 0.0065913693979382515 0.05 5.672381666954607e-05
192 0.006519673392176628 0.05 5.5496522691100836e-05
193 0.006442466285079718 0.05 5.418990986072458e-05
194 0.006371745839715004 0.05 5.3006730013294145e-05
195 0.0063031199388206005 0.05 5.187107308302075e-05
196 0.006235372740775347 0.05 5.0762027967721224e-05
197 0.006170439068228006 0.05 4.971028829459101e-05
198 0.006100111175328493 0.05 4.858359170611948e-05
199 0.0060355751775205135 0.05 4.756105045089498e-05
200 0.005969398654997349 0.05 4.6523811761289835e-05
201 0.005915796849876642 0.05 4.569205339066684e-05
202 0.005845818668603897 0.05 4.4617452658712864e-05
203 0.00578361377120018 0.05 4.367296787677333e-05
204 0.00572291249409318 0.05 4.276104300515726e-05
205 0.005661815404891968 0.05 4.185289435554296e-05
206 0.0056027309037745 0.05 4.098394128959626e-05
207 0.005541262216866016 0.05 4.0089576941682026e-05
208 0.00548438960686326 0.05 3.9270889828912914e-05
209 0.005427648313343525 0.05 3.846250183414668e-05
210 0.005370068363845348 0.05 3.7650759622920305e-05
211 0.005315087735652924 0.05 3.688373908516951e-05
212 0.00525816110894084 0.05 3.609789564507082e-05
213 0.005205826368182898 0.05 3.5382901842240244e-05
214 0.0051482138223946095 0.05 3.4604076063260436e-05
215 0.005097069777548313 0.05 3.391995414858684e-05
216 0.005043012090027332 0.05 3.3204283681698143e-05
217 0.005000443197786808 0.05 3.264608676545322e-05
218 0.004940786864608526 0.05 3.1871786632109433e-05
219 0.004888875875622034 0.05 3.120557084912434e-05
220 0.004840285982936621 0.05 3.0588362278649583e-05
221 0.004794078413397074 0.05 3.0007124223629944e-05
222 0.0047463285736739635 0.05 2.9412349249469116e-05
223 0.004695729352533817 0.05 2.8788577765226364e-05
224 0.004650499206036329 0.05 2.823665454343427e-05
225 0.004605541937053204 0.05 2.7693358788383193e-05
226 0.004558058921247721 0.05 2.7125264750793576e-05
227 0.004510931205004454 0.05 2.65672460955102e-05
228 0.004467511083930731 0.05 2.6058260118588805e-05
229 0.00442746514454484 0.05 2.5593191821826622e-05
230 0.004377918783575296 0.05 2.5023586204042658e-05
231 0.004333628341555595 0.05 2.451983164064586e-05
232 0.0042905742302536964 0.05 2.403504913672805e-05
233 0.004254073370248079 0.05 2.362784289289266e-05
234 0.004208344034850597 0.05 2.3122596758184955e-05
235 0.0041666412726044655 0.05 2.266659794258885e-05
236 0.0041260491125285625 0.05 2.2227104636840522e-05
237 0.004083299543708563 0.05 2.176890666305553e-05
238 0.004046307411044836 0.05 2.1376265067374334e-05
239 0.0040074242278933525 0.05 2.096741081913933e-05
240 0.003972974605858326 0.05 2.0608467821148224e-05
241 0.003928331192582846 0.05 2.014792335103266e-05
242 0.0038913048338145018 0.05 1.9769908249145374e-05
243 0.0038523878902196884 0.05 1.937644810823258e-05
244 0.003817621385678649 0.05 1.90282917174045e-05
245 0.003783398773521185 0.05 1.868866638687905e-05
246 0.0037421106826514006 0.05 1.8282997189089656e-05
247 0.0037082682829350233 0.05 1.795380376279354e-05
248 0.0036699026823043823 0.05 1.75842251337599e-05
249 0.0036356241907924414 0.05 1.7257269064430147e-05
250 0.0036022248677909374 0.05 1.69416525750421e-05
251 0.0035755294375121593 0.05 1.6691479686414823e-05
252 0.003534976625815034 0.05 1.6315003449562937e-05
253 0.0035017719492316246 0.05 1.600994437467307e-05
254 0.0034675041679292917 0.05 1.5698136849096045e-05
255 0.003436703933402896 0.05 1.5420497220475227e-05
256 0.003404193790629506 0.05 1.51301310324925e-05
257 0.003372087376192212 0.05 1.4846077647234779e-05
258 0.0033413099590688944 0.05 1.4576313333236612e-05
259 0.0033093031961470842 0.05 1.4298393580247648e-05
260 0.0032789616379886866 0.05 1.4037404980626889e-05
261 0.0032483814284205437 0.05 1.3776792911812663e-05
262 0.0032184605952352285 0.05 1.3524166206480004e-05
263 0.0031873895786702633 0.05 1.326430356130004e-05
264 0.003159960499033332 0.05 1.3036991731496528e-05
265 0.0031382180750370026 0.05 1.2858205991506111e-05
266 0.0031013754196465015 0.05 1.2558067282952834e-05
267 0.0030723826494067907 0.05 1.2324371709837578e-05
268 0.0030449586920440197 0.05 1.2105338100809604e-05
269 0.003017609706148505 0.05 1.1888860171893612e-05
270 0.002989359200000763 0.05 1.1667299986584112e-05
271 0.0029648111667484045 0.05 1.1476465260784607e-05
272 0.002935671480372548 0.05 1.125198195950361e-05
273 0.0029134543146938086 0.05 1.1082316632382572e-05
274 0.0028878652956336737 0.05 1.088849785446655e-05
275 0.0028557968325912952 0.05 1.0648016541381367e-05
276 0.002836221130564809 0.05 1.0502538316359278e-05
277 0.0028066083323210478 0.05 1.0284371455782093e-05
278 0.0027813808992505074 0.05 1.010031883197371e-05
279 0.0027596589643508196 0.05 9.943172699422576e-06
280 0.002734856214374304 0.05 9.76524461293593e-06
281 0.0027089547365903854 0.05 9.581150152371265e-06
282 0.0026872020680457354 0.05 9.427895747649018e-06
283 0.0026618833653628826 0.05 9.25107451621443e-06
284 0.0026397996116429567 0.05 9.098212103708647e-06
285 0.0026145046576857567 0.05 8.924686881073285e-06
286 0.002589344047009945 0.05 8.753739166422747e-06
287 0.002569339470937848 0.05 8.619004802312702e-06
288 0.0025466764345765114 0.05 8.46762577566551e-06
289 0.0025251624174416065 0.05 8.325162525579799e-06
290 0.0025027620140463114 0.05 8.178115422197152e-06
291 0.0024784542620182037 0.05 8.020027962629683e-06
292 0.0024565942585468292 0.05 7.879179065639619e-06
293 0.0024373591877520084 0.05 7.756276318104938e-06
294 0.0024167136289179325 0.05 7.625433227076428e-06
295 0.002393889706581831 0.05 7.482081855414435e-06
296 0.002378227189183235 0.05 7.384495802398305e-06
297 0.0023543958086520433 0.05 7.237241788971005e-06
298 0.0023325763177126646 0.05 7.103721145540476e-06
299 0.002313119824975729 0.05 6.985706932027824e-06
300 0.0022947576362639666 0.05 6.875238796055783e-06
301 0.0022750094067305326 0.05 6.7574137574411e-06
302 0.0022570344153791666 0.05 6.651053809036966e-06
303 0.0022361688315868378 0.05 6.528649009851506e-06
304 0.002217796165496111 0.05 6.421809757739538e-06
305 0.002199058188125491 0.05 6.313752237474546e-06
306 0.0021847623866051435 0.05 6.231929546629544e-06
307 0.0021632169373333454 0.05 6.109620699135121e-06
308 0.0021420479752123356 0.05 5.990630143060116e-06
309 0.0021232403814792633 0.05 5.885894097445998e-06
310 0.0021126451902091503 0.05 5.827298082294874e-06
311 0.002089358400553465 0.05 5.6995422710315324e-06
312 0.0020770535338670015 0.05 5.632607098959852e-06
313 0.0020540787372738123 0.05 5.5086889005906414e-06
314 0.002047416754066944 0.05 5.4730148804083e-06
315 0.0020216533448547125 0.05 5.3361436584964395e-06
316 0.002003319561481476 0.05 5.23979906574823e-06
317 0.0019889920949935913 0.05 5.165117272554198e-06
318 0.0019717963878065348 0.05 5.0761946113198064e-06
319 0.0019537939224392176 0.05 4.983926373824943e-06
320 0.0019380279118195176 0.05 4.903815806756029e-06
321 0.0019226399017497897 0.05 4.826253189094132e-06
322 0.001908842590637505 0.05 4.757232090923935e-06
323 0.0018919414142146707 0.05 4.673363036999945e-06
324 0.0018763832049444318 0.05 4.59681723441463e-06
325 0.0018602799391373992 0.05 4.518254172580782e-06
326 0.0018439482664689422 0.05 4.439269559952663e-06
327 0.0018315654015168548 0.05 4.379847268864978e-06
328 0.0018197738099843264 0.05 4.32363458457985e-06
329 0.0017993021756410599 0.05 4.226903456583386e-06
330 0.001789337140507996 0.05 4.180214091320522e-06
331 0.0017762788338586688 0.05 4.119422555959318e-06
332 0.0017623305320739746 0.05 4.054981218359899e-06
