
  0%|                                                                                                                                                                                                                                                                                            | 0/10 [00:00<?, ?it/s]
0, 0.1364392638206482
1, 0.1364392638206482
2, 0.1297922134399414
3, 0.11694823205471039
4, 0.09893609583377838
5, 0.0775601789355278
6, 0.05549611896276474
7, 0.038769613951444626
8, 0.027033653110265732
9, 0.01946975849568844
10, 0.015015238896012306
11, 0.012622632086277008
12, 0.011442016810178757
13, 0.010876140557229519
14, 0.010551202110946178
15, 0.010257868096232414
16, 0.009892454370856285
17, 0.009423453360795975
18, 0.008859813213348389
19, 0.008231032639741898
20, 0.007570949383080006
21, 0.006912931799888611
22, 0.006287510506808758
23, 0.00572208222001791
24, 0.005231290124356747
25, 0.004819334950298071
26, 0.004483829718083143
27, 0.004216184839606285
28, 0.004004383459687233
29, 0.0038337516598403454
30, 0.0036885624285787344
31, 0.0035561788827180862
32, 0.0034263120032846928
33, 0.003291783621534705
34, 0.0031489150132983923
35, 0.0029970756731927395
36, 0.0028377724811434746
37, 0.0026739933528006077
38, 0.0025093788281083107
39, 0.002348432783037424
40, 0.002194578293710947
41, 0.002051165560260415
42, 0.0019201538525521755
43, 0.0018026221077889204
44, 0.0016985972179099917
45, 0.0016072121215984225
46, 0.0015270516742020845
47, 0.0014561073621734977
48, 0.0013926116516813636
49, 0.0013346383348107338
50, 0.001280557131394744
51, 0.0012294626794755459
52, 0.001180625637061894
53, 0.001133958576247096
54, 0.0010893750004470348
55, 0.0010469098342582583
56, 0.0010069191921502352
57, 0.0009695828193798661
58, 0.0009349044412374496
59, 0.0009027998894453049
60, 0.0008730182307772338
61, 0.0008452333277091384
62, 0.0008191942470148206
63, 0.0007945927791297436
64, 0.0007712342776358128
65, 0.0007488721748813987
66, 0.0007273794035427272
67, 0.0007067695260047913
68, 0.000687022227793932
69, 0.0006682273233309388
70, 0.0006504944758489728
71, 0.0006337868398986757
72, 0.0006182055221870542
73, 0.0006036604172550142
74, 0.0005901120603084564
75, 0.0005774818710051477
76, 0.0005656513385474682
77, 0.0005545577732846141
78, 0.0005440608947537839
79, 0.0005341508076526225
80, 0.0005246484652161598
81, 0.0005156075931154191
82, 0.000506930926349014
83, 0.0004986310959793627
84, 0.000490694772452116
85, 0.00048310146667063236
86, 0.00047584157437086105
87, 0.00046891008969396353
88, 0.00046228774590417743
89, 0.00045595187111757696
90, 0.00044987426372244954
91, 0.00044404002255760133
92, 0.00043845453183166683
93, 0.0004330749507062137
94, 0.0004279070417396724
95, 0.0004229140467941761
96, 0.00041810196125879884
97, 0.0004134460468776524
98, 0.00040891976095736027
99, 0.000404567108489573
100, 0.0004003174544777721
101, 0.00039620528696104884
102, 0.0003922203031834215
103, 0.00038835027953609824
104, 0.0003845850005745888
105, 0.000380948738893494
106, 0.00037739280378445983
107, 0.00037397234700620174
108, 0.0003706252609845251
109, 0.000367402913980186
110, 0.00036424744757823646
111, 0.0003612044674810022
112, 0.00035820784978568554
113, 0.0003552907728590071
114, 0.0003524484927766025
115, 0.00034966826206073165
116, 0.00034695741487666965
117, 0.0003443099558353424
118, 0.00034172344021499157
119, 0.00033920275745913386
120, 0.00033673978759907186
121, 0.000334329204633832
122, 0.000331982912030071
123, 0.00032967841252684593
124, 0.000327430316247046
125, 0.0003252329770475626
126, 0.0003230801085010171
127, 0.00032097200164571404
128, 0.00031891255639493465
129, 0.0003168824187014252
130, 0.00031490306719206274
131, 0.00031296617817133665
132, 0.00031106077949516475
133, 0.00030919918208383024
134, 0.0003073672705795616
135, 0.00030557927675545216
136, 0.0003038210270460695
137, 0.0003021019510924816
138, 0.00030041293939575553
139, 0.0002987639745697379
140, 0.00029714254196733236
141, 0.0002955509116873145
142, 0.0002939840778708458
143, 0.00029245333280414343
144, 0.0002909570175688714
145, 0.00028948881663382053
146, 0.00028804547036997974
147, 0.0002866390277631581
148, 0.0002852457109838724
149, 0.0002838876680471003
150, 0.00028255529468879104
151, 0.0002812502789311111
152, 0.00027996322023682296
153, 0.0002786945551633835
154, 0.00027746002888306975
155, 0.00027624014182947576
156, 0.000275051046628505
157, 0.00027388386661186814
158, 0.00027273414889350533
159, 0.0002716114977374673
160, 0.00027049443451687694
161, 0.00026941727264784276
162, 0.00026835573953576386
163, 0.0002673064009286463
164, 0.00026627391343936324
165, 0.00026526913279667497
166, 0.0002642858016770333
167, 0.00026331376284360886
168, 0.00026236154371872544
169, 0.00026142780552618206
170, 0.00026051857275888324
171, 0.0002596175763756037
172, 0.00025873712729662657
173, 0.0002578725107014179
174, 0.00025702055427245796
175, 0.00025618920335546136
176, 0.0002553744416218251
177, 0.0002545734168961644
178, 0.00025378481950610876
179, 0.0002530096098780632
180, 0.0002522529102861881
181, 0.00025151955196633935
182, 0.0002507867175154388
183, 0.0002500633127056062
184, 0.0002493513748049736
185, 0.00024866469902917743
186, 0.00024798998492769897
187, 0.00024732411839067936
188, 0.00024666250101290643
189, 0.00024602501071058214
190, 0.0002453926717862487
191, 0.0002447839651722461
192, 0.0002441782271489501
193, 0.0002435828500892967
194, 0.0002430012682452798
195, 0.00024242843210231513
196, 0.00024186748487409204
197, 0.00024132330145221204
198, 0.00024078073329292238
199, 0.00024025914899539202
200, 0.0002397398930042982
201, 0.0002392288006376475
202, 0.00023874043836258352
203, 0.00023824823438189924
204, 0.00023776442685630172
205, 0.0002373017487116158
206, 0.00023684714687988162
207, 0.00023640153813175857
208, 0.00023596144455950707
209, 0.00023553520441055298
210, 0.0002351141010876745
211, 0.0002347000117879361
212, 0.00023429235443472862
213, 0.00023389956913888454
214, 0.000233516184380278
215, 0.00023313912970479578
216, 0.0002327717375010252
217, 0.00023240732843987644
218, 0.0002320601197425276
219, 0.00023170720669440925
220, 0.0002313763543497771
221, 0.00023105379659682512
222, 0.0002307269023731351
223, 0.0002304114168509841
224, 0.00023010894074104726
225, 0.00022980365611147135
226, 0.00022951395658310503
227, 0.0002292226708959788
228, 0.000228948425501585
229, 0.00022866466315463185
230, 0.00022840729798190296
231, 0.00022814648400526494
232, 0.00022789440117776394
233, 0.00022764792083762586
234, 0.00022741149587091058
235, 0.00022717528918292373
236, 0.00022695236839354038
237, 0.00022673510829918087
238, 0.00022651422477792948
239, 0.0002263059577671811
240, 0.00022611016174778342
241, 0.0002259153116028756
242, 0.0002257271553389728
243, 0.0002255383151350543
244, 0.00022535654716193676
245, 0.00022518262267112732
246, 0.000225013165618293
247, 0.0002248545497423038
248, 0.00022470124531537294
249, 0.00022455229191109538
250, 0.0002244091301690787
251, 0.000224276416702196
252, 0.00022413500119000673
253, 0.00022400892339646816
254, 0.00022388561046682298
255, 0.00022377233835868537
256, 0.00022365471522789448
257, 0.00022354615794029087
258, 0.00022344551689457148
259, 0.00022334570530802011
260, 0.0002232458646176383
261, 0.0002231629769084975
262, 0.0002230789978057146
263, 0.00022300069394987077
264, 0.00022292041103355587
265, 0.00022284124861471355
266, 0.00022277403331827372
267, 0.00022271495254244655
268, 0.00022264872677624226
269, 0.0002225867792731151
270, 0.0002225371281383559
271, 0.00022248747700359672
272, 0.00022243618150241673
273, 0.00022238875681068748
274, 0.00022235640790313482
275, 0.00022231039474718273
276, 0.00022227967565413564
277, 0.00022223903215490282
278, 0.00022220771643333137
279, 0.000222179718548432
280, 0.0002221546310465783
281, 0.00022213287593331188
282, 0.00022210922907106578
283, 0.00022208679001778364
284, 0.00022206883295439184
285, 0.00022205674031283706
286, 0.00022204185370355844
287, 0.00022203050320968032
288, 0.00022201727551873773
289, 0.0002220144815510139
290, 0.00022200743842404336
291, 0.00022199441445991397
292, 0.00022199095110408962
293, 0.0002219869929831475
294, 0.00022198297665454447
295, 0.00022198425722308457
296, 0.00022198204533196986
297, 0.00022198275837581605
298, 0.0002219828893430531
299, 0.0002219791931565851
0 2.5136940479278564 0.05 7.823116302490234
1 2.3575079441070557 0.05 6.881153583526611
2 2.192798137664795 0.05 5.9532246589660645
3 1.9881384372711182 0.05 4.893821716308594
4 1.7110294103622437 0.05 3.6246819496154785
5 1.3076621294021606 0.05 2.1171228885650635
6 0.8685368299484253 0.05 0.9339668154716492
7 0.6057712435722351 0.05 0.4543309509754181
8 0.4974948465824127 0.05 0.3064306080341339
9 0.41305994987487793 0.05 0.2112424075603485
10 0.35262954235076904 0.05 0.15395447611808777
11 0.30752500891685486 0.05 0.1170889362692833
12 0.2723561227321625 0.05 0.09183944016695023
13 0.24451100826263428 0.05 0.07402044534683228
14 0.22215813398361206 0.05 0.06110537052154541
15 0.2040475755929947 0.05 0.05154871195554733
16 0.18910057842731476 0.05 0.04427317529916763
17 0.17657506465911865 0.05 0.038602348417043686
18 0.16589008271694183 0.05 0.03407185524702072
19 0.15665942430496216 0.05 0.030385609716176987
20 0.148563951253891 0.05 0.027326365932822227
21 0.14135347306728363 0.05 0.024738188832998276
22 0.1348777711391449 0.05 0.022523488849401474
23 0.12900841236114502 0.05 0.020605875179171562
24 0.12364218384027481 0.05 0.018927283585071564
25 0.11873292177915573 0.05 0.01745409332215786
26 0.11420474201440811 0.05 0.016148164868354797
27 0.1100015938282013 0.05 0.01498141698539257
28 0.1061021238565445 0.05 0.013938084244728088
29 0.10246926546096802 0.05 0.012999964877963066
30 0.09906952828168869 0.05 0.012151646427810192
31 0.09588102996349335 0.05 0.011382047086954117
32 0.09287905693054199 0.05 0.010680475272238255
33 0.09004814922809601 0.05 0.010039325803518295
34 0.08738037198781967 0.05 0.009453285485506058
35 0.0848482996225357 0.05 0.008913354948163033
36 0.0824383869767189 0.05 0.008414221927523613
37 0.08015108853578568 0.05 0.007953785359859467
38 0.07796994596719742 0.05 0.007526783272624016
39 0.07588987797498703 0.05 0.007130544167011976
40 0.07389656454324722 0.05 0.006760884076356888
41 0.07198657095432281 0.05 0.0064159054309129715
42 0.0701640322804451 0.05 0.006095144897699356
43 0.06840971112251282 0.05 0.005794160068035126
44 0.066724494099617 0.05 0.005512206815183163
45 0.06510010361671448 0.05 0.005247086752206087
46 0.06354549527168274 0.05 0.00499947601929307
47 0.062041714787483215 0.05 0.004765653982758522
48 0.060589469969272614 0.05 0.004545160569250584
49 0.059194840490818024 0.05 0.004338330589234829
50 0.057841360569000244 0.05 0.004142208490520716
51 0.05654270946979523 0.05 0.003958295099437237
52 0.055274199694395065 0.05 0.003782682353630662
53 0.05404960364103317 0.05 0.003616929054260254
54 0.05287137255072594 0.05 0.0034609560389071703
55 0.05172643065452576 0.05 0.0033126836642622948
56 0.05062144249677658 0.05 0.003172663040459156
57 0.04954639822244644 0.05 0.0030393386259675026
58 0.048503000289201736 0.05 0.0029126754961907864
59 0.04749312996864319 0.05 0.0027926499024033546
60 0.04651356115937233 0.05 0.0026786387898027897
61 0.04556366428732872 0.05 0.0025703501887619495
62 0.0446351058781147 0.05 0.0024666532408446074
63 0.043738968670368195 0.05 0.002368601504713297
64 0.04287061095237732 0.05 0.0022754869423806667
65 0.04201819375157356 0.05 0.0021858972031623125
66 0.041200391948223114 0.05 0.0021016369573771954
67 0.04039303585886955 0.05 0.002020076848566532
68 0.039613984525203705 0.05 0.0019429069943726063
69 0.03885342553257942 0.05 0.001869018655270338
70 0.038117971271276474 0.05 0.0017989312764257193
71 0.037397146224975586 0.05 0.001731537515297532
72 0.03670256957411766 0.05 0.001667815144173801
73 0.036015067249536514 0.05 0.0016059181652963161
74 0.03535579517483711 0.05 0.0015476623084396124
75 0.03470480069518089 0.05 0.0014911936596035957
76 0.0340794175863266 0.05 0.001437935046851635
77 0.03345967084169388 0.05 0.0013861116021871567
78 0.03285989165306091 0.05 0.0013368639629334211
79 0.03227793052792549 0.05 0.0012899305438622832
80 0.03170503303408623 0.05 0.0012445473112165928
81 0.03114820457994938 0.05 0.0012012156657874584
82 0.03060797229409218 0.05 0.001159909414127469
83 0.03007379174232483 0.05 0.0011197765124961734
84 0.029555825516581535 0.05 0.0010815364075824618
85 0.02905300259590149 0.05 0.0010450497502461076
86 0.028560779988765717 0.05 0.0010099387727677822
87 0.028075803071260452 0.05 0.0009759315871633589
88 0.02760571800172329 0.05 0.0009435242973268032
89 0.02714410424232483 0.05 0.0009122334886342287
90 0.026693174615502357 0.05 0.0008821763331070542
91 0.026258349418640137 0.05 0.0008536695968359709
92 0.025822967290878296 0.05 0.0008255953434854746
93 0.025408228859305382 0.05 0.0007992887985892594
94 0.02499712072312832 0.05 0.0007736328989267349
95 0.024591771885752678 0.05 0.0007487460970878601
96 0.02420162595808506 0.05 0.0007251771166920662
97 0.023816578090190887 0.05 0.0007022853824310005
98 0.023436907678842545 0.05 0.0006800731061957777
99 0.023068668320775032 0.05 0.0006588703254237771
tuning, 0, 0.0002576273400336504
tuning, 1, 0.0002576273400336504
tuning, 2, 0.00025581635418348014
tuning, 3, 0.00025272948550991714
tuning, 4, 0.0002488348982296884
tuning, 5, 0.00024439027765765786
tuning, 6, 0.00023967101878952235
tuning, 7, 0.0002345526881981641
tuning, 8, 0.0002290786214871332
tuning, 9, 0.00022374533000402153
tuning, 10, 0.00021841161651536822
tuning, 11, 0.00021345388086047024
tuning, 12, 0.00020894824410788715
tuning, 13, 0.00020467801368795335
tuning, 14, 0.0002005345158977434
tuning, 15, 0.00019689369946718216
tuning, 16, 0.0001933476305566728
tuning, 17, 0.000189733604202047
tuning, 18, 0.0001863518700702116
tuning, 19, 0.00018306913261767477
tuning, 20, 0.00018015169189311564
tuning, 21, 0.00017728202510625124
tuning, 22, 0.0001745695190038532
tuning, 23, 0.00017169494822155684
tuning, 24, 0.00016911467537283897
tuning, 25, 0.00016673973004799336
tuning, 26, 0.00016411788237746805
tuning, 27, 0.00016180644161067903
tuning, 28, 0.0001596040528966114
tuning, 29, 0.0001574598136357963
tuning, 30, 0.00015553398407064378
tuning, 31, 0.00015357192023657262
tuning, 32, 0.00015167340461630374
tuning, 33, 0.00014992276555858552
tuning, 34, 0.00014805811224505305
tuning, 35, 0.00014637428103014827
tuning, 36, 0.00014475372154265642
tuning, 37, 0.00014307834499049932
tuning, 38, 0.00014147866750136018
tuning, 39, 0.0001400344626745209
tuning, 40, 0.00013846394722349942
tuning, 41, 0.0001370876416331157
tuning, 42, 0.00013561698142439127
tuning, 43, 0.00013439636677503586
tuning, 44, 0.00013306386244948953
tuning, 45, 0.00013193678751122206
tuning, 46, 0.00013070381828583777
tuning, 47, 0.00012969979434274137
tuning, 48, 0.00012857915135100484
tuning, 49, 0.0001275804388569668
tuning, 50, 0.00012659930507652462
tuning, 51, 0.0001256877148989588
tuning, 52, 0.00012477301061153412
tuning, 53, 0.00012389634503051639
tuning, 54, 0.00012308810255490243
tuning, 55, 0.00012230050924699754
tuning, 56, 0.00012156018055975437
tuning, 57, 0.00012073458492523059
tuning, 58, 0.00012006542965536937
tuning, 59, 0.00011936642113141716
tuning, 60, 0.00011873997573275119
tuning, 61, 0.00011812946468126029
tuning, 62, 0.00011759820336010307
tuning, 63, 0.00011704651114996523
tuning, 64, 0.00011649646330624819
tuning, 65, 0.000116031696961727
tuning, 66, 0.0001155422069132328
tuning, 67, 0.00011510581680340692
tuning, 68, 0.00011466053547337651
tuning, 69, 0.00011429099686210975
tuning, 70, 0.00011390758299967274
tuning, 71, 0.00011352403089404106
tuning, 72, 0.00011321462079649791
tuning, 73, 0.0001129194424720481
tuning, 74, 0.00011263576743658632
tuning, 75, 0.00011235425336053595
tuning, 76, 0.00011212401295779273
tuning, 77, 0.00011190753866685554
tuning, 78, 0.00011170882498845458
tuning, 79, 0.0001114864571718499
tuning, 80, 0.00011133044608868659
tuning, 81, 0.0001111535748350434
tuning, 82, 0.0001110088633140549
tuning, 83, 0.00011087607708759606
tuning, 84, 0.00011078640091000125
tuning, 85, 0.00011066840670537204
tuning, 86, 0.00011058829841203988
tuning, 87, 0.00011051457840949297
tuning, 88, 0.00011043074482586235
tuning, 89, 0.00011037123476853594
tuning, 90, 0.0001103119138861075
tuning, 91, 0.00011029515735572204
tuning, 92, 0.00011025382991647348
tuning, 93, 0.00011021568207070231
tuning, 94, 0.00011019008525181562
tuning, 95, 0.00011017937504220754
tuning, 96, 0.00011017315409844741
tuning, 97, 0.00011016494681825861
tuning, 98, 0.00011016507050953805
tuning, 99, 0.00011016466305591166
inversion time : 135.15831398963928

 10%|███████████████████████████▌                                                                                                                                                                                                                                                       | 1/10 [02:24<21:36, 144.09s/it]
1, 0.1123598963022232
2, 0.1047876700758934
3, 0.09046940505504608
4, 0.07124528288841248
5, 0.05020027607679367
6, 0.03146953135728836
7, 0.020328208804130554
8, 0.01486477442085743
9, 0.012926913797855377
10, 0.01279977522790432
11, 0.01336776465177536
12, 0.014024781994521618
13, 0.014499607495963573
14, 0.014702612534165382
15, 0.014641938731074333
16, 0.0143626993522048
17, 0.013923926278948784
18, 0.01337960921227932
19, 0.012771661393344402
20, 0.012129448354244232
21, 0.011474287137389183
22, 0.01081912126392126
23, 0.01017431728541851
24, 0.009549113921821117
25, 0.00895058922469616
26, 0.008387173525989056
27, 0.007865174673497677
28, 0.007388764526695013
29, 0.006959888618439436
30, 0.0065786950290203094
31, 0.006240978837013245
32, 0.005940786562860012
33, 0.005672533996403217
34, 0.005428793840110302
35, 0.005203527398407459
36, 0.004992358386516571
37, 0.0047921789810061455
38, 0.004601338412612677
39, 0.004418662749230862
40, 0.004243967588990927
41, 0.004077581688761711
42, 0.003919840790331364
43, 0.0037721877451986074
44, 0.0036348155699670315
45, 0.003507880959659815
46, 0.003391616977751255
47, 0.003285640385001898
48, 0.003189039882272482
49, 0.003101167967543006
50, 0.003021037904545665
51, 0.002947427099570632
52, 0.002878818428143859
53, 0.0028142323717474937
54, 0.0027531124651432037
55, 0.0026950142346322536
56, 0.002639785874634981
57, 0.002586779184639454
58, 0.0025358255952596664
59, 0.0024869651533663273
60, 0.0024400982074439526
61, 0.0023954464122653008
62, 0.0023529939353466034
63, 0.0023124264553189278
64, 0.002273841528221965
65, 0.0022370486985892057
66, 0.002201924566179514
67, 0.0021682465448975563
68, 0.002135862596333027
69, 0.0021045461762696505
70, 0.002074256306514144
71, 0.0020448192954063416
72, 0.0020160842686891556
73, 0.001988297328352928
74, 0.0019612438045442104
75, 0.0019347913330420852
76, 0.0019089626148343086
77, 0.0018838215619325638
78, 0.0018593001877889037
79, 0.0018355021020397544
80, 0.001812290633097291
81, 0.001789661357179284
82, 0.0017676874995231628
83, 0.0017461671959608793
84, 0.0017250969540327787
85, 0.0017044715350493789
86, 0.001684197224676609
87, 0.001664241193793714
88, 0.0016446011140942574
89, 0.0016252858331426978
90, 0.001606350066140294
91, 0.0015877324622124434
92, 0.0015693990280851722
93, 0.0015513855032622814
94, 0.0015335859498009086
95, 0.001515988609753549
96, 0.0014987164177000523
97, 0.0014815973117947578
98, 0.0014647351345047355
99, 0.001448080176487565
100, 0.001431608572602272
101, 0.001415311824530363
102, 0.001399203552864492
103, 0.0013832803815603256
104, 0.001367508783005178
105, 0.0013519704807549715
106, 0.001336635323241353
107, 0.001321538700722158
108, 0.0013065577950328588
109, 0.001291666878387332
110, 0.001277015544474125
111, 0.0012626317329704762
112, 0.0012482460588216782
113, 0.0012340525863692164
114, 0.0012200360652059317
115, 0.001206161454319954
