
  0%|                                                                                                                                                                                                                                                                                            | 0/10 [00:00<?, ?it/s]
0, 0.1364392638206482
1, 0.1364392638206482
2, 0.12979230284690857
3, 0.11694799363613129
4, 0.09893607348203659
5, 0.07756024599075317
6, 0.05549619346857071
7, 0.03877319395542145
8, 0.027045561000704765
9, 0.019489720463752747
10, 0.015038179233670235
11, 0.012640578672289848
12, 0.011447668075561523
13, 0.010865229181945324
14, 0.010523684322834015
15, 0.010215477086603642
16, 0.009841348975896835
17, 0.009367186576128006
18, 0.008805131539702415
19, 0.008180992677807808
20, 0.007529797963798046
21, 0.006880289874970913
22, 0.006261833012104034
23, 0.005697061773389578
24, 0.0052010733634233475
25, 0.0047779083251953125
26, 0.00442532729357481
27, 0.004136805888265371
28, 0.003902122378349304
29, 0.0037089125253260136
30, 0.003545270999893546
31, 0.003400733694434166
32, 0.0032659012358635664
33, 0.003134543774649501
34, 0.0030029602348804474
35, 0.0028688739985227585
36, 0.0027320487424731255
37, 0.002593458164483309
38, 0.0024547565262764692
39, 0.0023181522265076637
40, 0.0021858960390090942
41, 0.002059860387817025
42, 0.0019416857976466417
43, 0.0018322691321372986
44, 0.0017320909537374973
45, 0.0016413475386798382
46, 0.001559508848004043
47, 0.001486044144257903
48, 0.0014202725142240524
49, 0.0013612136244773865
50, 0.0013079376658424735
51, 0.0012596745509654284
52, 0.001215609023347497
53, 0.0011752538848668337
54, 0.0011379261268302798
55, 0.0011033785995095968
56, 0.0010712919756770134
57, 0.0010414023417979479
58, 0.0010135674383491278
59, 0.0009876780677586794
60, 0.0009635744499973953
61, 0.0009412702056579292
62, 0.0009204817470163107
63, 0.0009013201924972236
64, 0.0008835938642732799
65, 0.000867254042532295
66, 0.0008522173739038408
67, 0.0008383266977034509
68, 0.0008256269502453506
69, 0.0008138694684021175
70, 0.000803092960268259
71, 0.0007932344451546669
72, 0.0007841199403628707
73, 0.0007758431020192802
74, 0.0007682490977458656
75, 0.0007612918852828443
76, 0.0007549211150035262
77, 0.0007491167052648962
78, 0.0007438353495672345
79, 0.00073907186742872
80, 0.0007347430801019073
81, 0.0007308110361918807
82, 0.0007273376686498523
83, 0.0007242267020046711
84, 0.0007214478682726622
85, 0.0007189462194219232
86, 0.0007168377633206546
87, 0.0007149637676775455
88, 0.0007133283652365208
89, 0.0007119778310880065
90, 0.0007108395220711827
91, 0.0007098806090652943
92, 0.0007091125007718801
93, 0.0007084658136591315
94, 0.0007080085342749953
95, 0.0007076738402247429
96, 0.0007074332679621875
97, 0.0007072747102938592
98, 0.0007071974687278271
99, 0.0007071532309055328
0 2.4191107749938965 0.05 7.6405439376831055
1 2.259066343307495 0.05 6.663013935089111
2 2.091580867767334 0.05 5.71165657043457
3 1.8938157558441162 0.05 4.68261194229126
4 1.6141176223754883 0.05 3.401599168777466
5 1.2362252473831177 0.05 1.995298981666565
6 0.8045529723167419 0.05 0.8451272249221802
7 0.5749092102050781 0.05 0.43153029680252075
8 0.472076952457428 0.05 0.29096341133117676
9 0.3923066258430481 0.05 0.2009388953447342
10 0.33783143758773804 0.05 0.14900915324687958
11 0.2966808080673218 0.05 0.11491894721984863
12 0.2651800811290741 0.05 0.09181096404790878
13 0.240068718791008 0.05 0.07524608820676804
14 0.21956034004688263 0.05 0.0629391074180603
15 0.20264579355716705 0.05 0.05361520126461983
16 0.18850956857204437 0.05 0.04639589786529541
17 0.17652960121631622 0.05 0.04068627208471298
18 0.16618727147579193 0.05 0.03605855256319046
19 0.15711311995983124 0.05 0.032228320837020874
20 0.14906466007232666 0.05 0.029010964557528496
21 0.14183636009693146 0.05 0.026265639811754227
22 0.13528230786323547 0.05 0.023894324898719788
23 0.12931235134601593 0.05 0.02183196321129799
24 0.12384993582963943 0.05 0.020026465877890587
25 0.11884597688913345 0.05 0.018440883606672287
26 0.11421215534210205 0.05 0.01703089103102684
27 0.10993912816047668 0.05 0.01578037440776825
28 0.10597660392522812 0.05 0.01466333493590355
29 0.10228441655635834 0.05 0.013659404590725899
30 0.09884364902973175 0.05 0.012755878269672394
31 0.09561680257320404 0.05 0.011936616152524948
32 0.09259502589702606 0.05 0.011194068938493729
33 0.08974051475524902 0.05 0.010514529421925545
34 0.08704929798841476 0.05 0.009893348440527916
35 0.08449776470661163 0.05 0.009321874938905239
36 0.0820743590593338 0.05 0.008794836699962616
37 0.0797761008143425 0.05 0.00830918364226818
38 0.0775807723402977 0.05 0.007858161814510822
39 0.0754893347620964 0.05 0.007440189365297556
40 0.07348861545324326 0.05 0.007051035761833191
41 0.07156920433044434 0.05 0.006687520071864128
42 0.06972863525152206 0.05 0.006347972899675369
43 0.0679604560136795 0.05 0.006030111573636532
44 0.06626240909099579 0.05 0.0057325419038534164
45 0.06462828069925308 0.05 0.005453282035887241
46 0.0630539283156395 0.05 0.005190832540392876
47 0.06153975799679756 0.05 0.004944522399455309
48 0.060070883482694626 0.05 0.0047113001346588135
49 0.05866686627268791 0.05 0.0044936430640518665
50 0.05729188770055771 0.05 0.004285475239157677
51 0.05597294867038727 0.05 0.0040904320776462555
52 0.0546945221722126 0.05 0.003905714023858309
53 0.05346008762717247 0.05 0.0037314030341804028
54 0.05225583165884018 0.05 0.003565186634659767
55 0.05110250785946846 0.05 0.003409550990909338
56 0.04997500777244568 0.05 0.0032607573084533215
57 0.04888622462749481 0.05 0.003120223991572857
58 0.0478292778134346 0.05 0.002986760577186942
59 0.046800702810287476 0.05 0.002859680214896798
60 0.04580751061439514 0.05 0.0027395933866500854
61 0.044843871146440506 0.05 0.002625542227178812
62 0.04390201345086098 0.05 0.002516411477699876
63 0.04299110174179077 0.05 0.0024130698293447495
64 0.04210326820611954 0.05 0.002314431592822075
65 0.04124632105231285 0.05 0.0022211773321032524
66 0.04040832072496414 0.05 0.0021318388171494007
67 0.03959839046001434 0.05 0.0020472356118261814
68 0.03880320489406586 0.05 0.001965838950127363
69 0.03803381696343422 0.05 0.0018886546604335308
70 0.03728598356246948 0.05 0.0018151144031435251
71 0.03655654937028885 0.05 0.0017447900027036667
72 0.03584665805101395 0.05 0.0016776835545897484
73 0.035158608108758926 0.05 0.0016138983191922307
74 0.03448614478111267 0.05 0.001552751986309886
75 0.03383346274495125 0.05 0.0014945333823561668
76 0.03319334611296654 0.05 0.0014385166577994823
77 0.032573048025369644 0.05 0.0013852543197572231
78 0.03196526691317558 0.05 0.0013340418227016926
79 0.031376346945762634 0.05 0.001285338425077498
80 0.03080248460173607 0.05 0.0012387516908347607
81 0.030239328742027283 0.05 0.0011938700918108225
82 0.029693588614463806 0.05 0.0011511665070429444
83 0.029163775965571404 0.05 0.0011104531586170197
84 0.028642507269978523 0.05 0.0010711117647588253
85 0.028130745515227318 0.05 0.001033178297802806
86 0.027637824416160583 0.05 0.0009972878033295274
87 0.02715519815683365 0.05 0.0009627615800127387
88 0.026679102331399918 0.05 0.0009292984614148736
89 0.026224521920084953 0.05 0.0008978999103419483
90 0.025772251188755035 0.05 0.0008671963587403297
91 0.025334736332297325 0.05 0.0008380030049011111
92 0.024905743077397346 0.05 0.0008098635007627308
93 0.024486646056175232 0.05 0.000782836985308677
94 0.02407717891037464 0.05 0.0007568746223114431
95 0.023677675053477287 0.05 0.0007319658761844039
96 0.023286163806915283 0.05 0.0007079598726704717
97 0.02290390059351921 0.05 0.0006849071360193193
98 0.0225297212600708 0.05 0.000662711332552135
99 0.022165447473526 0.05 0.000641454360447824
100 0.021806437522172928 0.05 0.0006208435515873134
101 0.021458270028233528 0.05 0.0006011766963638365
102 0.021116498857736588 0.05 0.0005821790546178818
103 0.020782239735126495 0.05 0.0005638939328491688
104 0.020456284284591675 0.05 0.0005463440902531147
105 0.02013714239001274 0.05 0.0005294298753142357
106 0.019823694601655006 0.05 0.0005130763165652752
107 0.019514312967658043 0.05 0.0004971864400431514
108 0.019212471321225166 0.05 0.00048192471149377525
109 0.018921153619885445 0.05 0.0004674207593780011
110 0.01862870343029499 0.05 0.0004530831938609481
111 0.01835053041577339 0.05 0.00043965288205072284
112 0.018072694540023804 0.05 0.00042644061613827944
113 0.017803343012928963 0.05 0.0004138241638429463
114 0.01754124090075493 0.05 0.00040172916487790644
115 0.017281055450439453 0.05 0.0003899000003002584
116 0.017021415755152702 0.05 0.00037827197229489684
117 0.016775352880358696 0.05 0.000367414322681725
118 0.01653115078806877 0.05 0.00035679512075148523
119 0.01629560813307762 0.05 0.0003467000788077712
120 0.016055867075920105 0.05 0.00033657383755780756
121 0.015823105350136757 0.05 0.00032688589999452233
122 0.015600495971739292 0.05 0.0003177529142703861
123 0.015374510549008846 0.05 0.00030861381674185395
124 0.0151585154235363 0.05 0.00030000339029356837
125 0.014946171082556248 0.05 0.000291657168418169
126 0.0147380530834198 0.05 0.00028359133284538984
127 0.014529037289321423 0.05 0.00027560460148379207
128 0.014328885823488235 0.05 0.0002680634497664869
129 0.014132685959339142 0.05 0.0002607727365102619
130 0.013935196213424206 0.05 0.00025353560340590775
131 0.013742930255830288 0.05 0.0002465877332724631
132 0.013557663187384605 0.05 0.00023998410324566066
133 0.013373374938964844 0.05 0.00023350429546553642
134 0.013192495331168175 0.05 0.00022723051370121539
135 0.013013942167162895 0.05 0.0002211212704423815
136 0.012841472402215004 0.05 0.00021529920923057944
137 0.012667411006987095 0.05 0.00020950213365722448
138 0.012502769008278847 0.05 0.00020409162971191108
139 0.012339982204139233 0.05 0.00019881167099811137
140 0.01217382401227951 0.05 0.00019349370268173516
141 0.012016579508781433 0.05 0.00018852742505259812
142 0.011861943639814854 0.05 0.00018370650650467724
143 0.01170109398663044 0.05 0.0001787580840755254
144 0.011556288227438927 0.05 0.00017436104826629162
145 0.011401551775634289 0.05 0.00016972300363704562
146 0.011257610283792019 0.05 0.00016546461847610772
147 0.011113922111690044 0.05 0.00016126774426084012
148 0.010971593670547009 0.05 0.00015716368216089904
149 0.01083200890570879 0.05 0.00015319012163672596
150 0.010693049058318138 0.05 0.0001492848969064653
151 0.010562819428741932 0.05 0.0001456707832403481
152 0.010426852852106094 0.05 0.00014194472169037908
153 0.010297649540007114 0.05 0.00013844871136825532
154 0.010169449262320995 0.05 0.00013502297224476933
155 0.010044100694358349 0.05 0.00013171491445973516
156 0.009919294156134129 0.05 0.00012846189201809466
157 0.009798248298466206 0.05 0.0001253457594430074
158 0.009680178947746754 0.05 0.0001223431172547862
159 0.009558203630149364 0.05 0.00011927934974664822
160 0.009441226720809937 0.05 0.0001163776614703238
161 0.009329001419246197 0.05 0.00011362740042386577
162 0.009214615449309349 0.05 0.00011085804726462811
163 0.009104081429541111 0.05 0.0001082144008250907
164 0.008994964882731438 0.05 0.00010563593241386116
165 0.008890075609087944 0.05 0.00010318669956177473
166 0.008779331110417843 0.05 0.00010063187801279128
167 0.008680630475282669 0.05 9.838191908784211e-05
168 0.008575000800192356 0.05 9.600218618288636e-05
169 0.008472179993987083 0.05 9.37137083383277e-05
170 0.008374170400202274 0.05 9.155800944427028e-05
171 0.008279682137072086 0.05 8.950351912062615e-05
172 0.008177682757377625 0.05 8.731186971999705e-05
173 0.008082922548055649 0.05 8.530011109542102e-05
174 0.00798899307847023 0.05 8.332912693731487e-05
175 0.007898719049990177 0.05 8.145657193381339e-05
176 0.007806724403053522 0.05 7.957019988680258e-05
177 0.007718554697930813 0.05 7.77829991420731e-05
178 0.007626464124768972 0.05 7.593801274197176e-05
179 0.0075431447476148605 0.05 7.428781827911735e-05
180 0.007457062602043152 0.05 7.26019570720382e-05
181 0.007368536666035652 0.05 7.088840357027948e-05
182 0.007288515102118254 0.05 6.935709097888321e-05
183 0.007208508439362049 0.05 6.784277502447367e-05
184 0.007127823308110237 0.05 6.633254088228568e-05
185 0.007046976126730442 0.05 6.483632023446262e-05
186 0.006965289358049631 0.05 6.334190402412787e-05
187 0.00688741123303771 0.05 6.193337321747094e-05
188 0.006808461621403694 0.05 6.052164826542139e-05
189 0.006736635230481625 0.05 5.925143341301009e-05
190 0.006663760636001825 0.05 5.797643825644627e-05
191 0.006587157025933266 0.05 5.665116259478964e-05
192 0.006524576339870691 0.05 5.557985423365608e-05
193 0.006444502156227827 0.05 5.4223994084168226e-05
194 0.0063799116760492325 0.05 5.3142513934290037e-05
195 0.00630308547988534 0.05 5.187035276321694e-05
196 0.006236881949007511 0.05 5.0786446081474423e-05
197 0.006171899847686291 0.05 4.973366594640538e-05
198 0.006101624574512243 0.05 4.8607551434542984e-05
199 0.006035746540874243 0.05 4.756360431201756e-05
200 0.005975923500955105 0.05 4.662543142330833e-05
201 0.0059051476418972015 0.05 4.552754762698896e-05
202 0.005842925049364567 0.05 4.457315299077891e-05
203 0.005784646142274141 0.05 4.368842201074585e-05
204 0.00572278443723917 0.05 4.2758998461067677e-05
205 0.005660548340529203 0.05 4.1834035073406994e-05
206 0.005602509249001741 0.05 4.098056524526328e-05
207 0.0055415756069123745 0.05 4.009398980997503e-05
208 0.005482308100908995 0.05 3.9240967453224584e-05
209 0.005428113974630833 0.05 3.846898107440211e-05
210 0.005371858831495047 0.05 3.7675752537325025e-05
211 0.0053140209056437016 0.05 3.686882337206043e-05
212 0.005261370912194252 0.05 3.614186425693333e-05
213 0.0052028545178473 0.05 3.534241477609612e-05
214 0.00514845410361886 0.05 3.460719744907692e-05
215 0.005100951995700598 0.05 3.39715406880714e-05
216 0.005042637698352337 0.05 3.319924871902913e-05
217 0.004993381444364786 0.05 3.2553838536841795e-05
218 0.004942863713949919 0.05 3.189848575857468e-05
219 0.004890809766948223 0.05 3.123016722383909e-05
220 0.004841019865125418 0.05 3.0597540899179876e-05
221 0.004796152468770742 0.05 3.0033001166884787e-05
222 0.0047454554587602615 0.05 2.9401437132037245e-05
223 0.004696087446063757 0.05 2.8792877856176347e-05
224 0.004650837276130915 0.05 2.8240672691026703e-05
225 0.0046071759425103664 0.05 2.771292201941833e-05
226 0.004556708969175816 0.05 2.7109115762868896e-05
227 0.004510208033025265 0.05 2.6558645913610235e-05
228 0.0044665089808404446 0.05 2.6046487619169056e-05
229 0.004420331213623285 0.05 2.5510700652375817e-05
230 0.004375301767140627 0.05 2.4993600163725205e-05
231 0.004337337799370289 0.05 2.4561748432461172e-05
232 0.004292954690754414 0.05 2.40616482187761e-05
233 0.0042514922097325325 0.05 2.359910649829544e-05
234 0.004210322629660368 0.05 2.31442681979388e-05
235 0.004166995640844107 0.05 2.2670381440548226e-05
236 0.004127464257180691 0.05 2.2242284103413112e-05
237 0.004085445310920477 0.05 2.1791725885123014e-05
238 0.004045415669679642 0.05 2.1366780856624246e-05
239 0.004006675444543362 0.05 2.095950549119152e-05
240 0.0039672935381531715 0.05 2.0549508917611092e-05
241 0.003929435275495052 0.05 2.0159190171398222e-05
242 0.0038908577989786863 0.05 1.9765302567975596e-05
243 0.0038527953438460827 0.05 1.938048444571905e-05
244 0.0038160993717610836 0.05 1.9013064957107417e-05
245 0.003786441870033741 0.05 1.8718688806984574e-05
246 0.0037416163831949234 0.05 1.8278111383551732e-05
247 0.0037069935351610184 0.05 1.7941405531018972e-05
248 0.0036726214457303286 0.05 1.76102330442518e-05
249 0.003637684741988778 0.05 1.7276783182751387e-05
250 0.0036044029984623194 0.05 1.6962094377959147e-05
251 0.003567880718037486 0.05 1.6620091628283262e-05
252 0.0035356106236577034 0.05 1.6320806025760248e-05
253 0.0035016629844903946 0.05 1.6008900274755433e-05
254 0.0034720718394964933 0.05 1.5739475202281028e-05
255 0.0034354121889919043 0.05 1.540885932627134e-05
256 0.003403719048947096 0.05 1.5125863683351781e-05
257 0.0033726657275110483 0.05 1.4851124433334917e-05
258 0.0033390370663255453 0.05 1.455644360248698e-05
259 0.0033123211469501257 0.05 1.4324439689517021e-05
260 0.003280442673712969 0.05 1.4050042409508023e-05
261 0.0032495136838406324 0.05 1.3786357158096507e-05
262 0.0032180892303586006 0.05 1.3521004802896641e-05
263 0.003199205733835697 0.05 1.3362789104576223e-05
264 0.003158148843795061 0.05 1.3022006896790117e-05
265 0.0031309756450355053 0.05 1.2798885109077673e-05
266 0.003099731169641018 0.05 1.2544715900730807e-05
267 0.0030751845333725214 0.05 1.234682076756144e-05
268 0.0030527908820658922 0.05 1.2167654858785681e-05
269 0.003016661386936903 0.05 1.188135411211988e-05
270 0.0029931406024843454 0.05 1.1696797628246713e-05
271 0.0029661774169653654 0.05 1.1487010851851664e-05
272 0.0029392929282039404 0.05 1.1279725185886491e-05
273 0.002910599811002612 0.05 1.1060576071031392e-05
274 0.002883792854845524 0.05 1.0857776942430064e-05
275 0.0028625233098864555 0.05 1.0698202459025197e-05
276 0.002832099562510848 0.05 1.0472004760231357e-05
277 0.0028068183455616236 0.05 1.0285877579008229e-05
278 0.0027834298089146614 0.05 1.0115173608937766e-05
279 0.0027571029495447874 0.05 9.924731784849428e-06
280 0.0027352399192750454 0.05 9.767953997652512e-06
281 0.002709269290789962 0.05 9.583345672581345e-06
282 0.0026912528555840254 0.05 9.45631109061651e-06
283 0.002660438185557723 0.05 9.241002771886997e-06
284 0.0026393148582428694 0.05 9.09484333533328e-06
285 0.00261592585593462 0.05 8.93436481419485e-06
286 0.002593415789306164 0.05 8.781264114077203e-06
287 0.002572100143879652 0.05 8.637509381514974e-06
288 0.0025473537389189005 0.05 8.472103218082339e-06
289 0.0025235149078071117 0.05 8.31427769298898e-06
290 0.002502763643860817 0.05 8.178099960787222e-06
291 0.0024803271517157555 0.05 8.032129699131474e-06
292 0.0024591824039816856 0.05 7.895766430010553e-06
293 0.0024371170438826084 0.05 7.754711077723186e-06
294 0.002415746683254838 0.05 7.619308235007338e-06
295 0.0023950969334691763 0.05 7.489605650334852e-06
296 0.0023751489352434874 0.05 7.365369128820021e-06
297 0.0023545550648123026 0.05 7.238197667902568e-06
298 0.0023336245212703943 0.05 7.110083970474079e-06
299 0.002313087461516261 0.05 6.985490472288802e-06
300 0.00229475530795753 0.05 6.8752033257624134e-06
301 0.002277103951200843 0.05 6.769840183551423e-06
302 0.0022556697949767113 0.05 6.642993866989855e-06
303 0.002245047828182578 0.05 6.580577064596582e-06
304 0.0022171144373714924 0.05 6.417841632355703e-06
305 0.002199397422373295 0.05 6.315680820989655e-06
306 0.002180339302867651 0.05 6.206702892086469e-06
307 0.0021704931277781725 0.05 6.150771696411539e-06
308 0.002145825419574976 0.05 6.011758159729652e-06
309 0.0021249435376375914 0.05 5.8953219195245765e-06
310 0.002106748055666685 0.05 5.7947927416535094e-06
311 0.0020932727493345737 0.05 5.720899935113266e-06
312 0.002074131043627858 0.05 5.616750968329143e-06
313 0.002052192110568285 0.05 5.498557584360242e-06
314 0.002038025762885809 0.05 5.42290581506677e-06
315 0.0020260189194232225 0.05 5.35919753019698e-06
316 0.002017432125285268 0.05 5.313866495271213e-06
317 0.0019889441318809986 0.05 5.164853064343333e-06
318 0.001971457852050662 0.05 5.074435648566578e-06
319 0.0019525981042534113 0.05 4.977812295692274e-06
320 0.0019388830987736583 0.05 4.908129540126538e-06
321 0.001922748633660376 0.05 4.8267834245052654e-06
322 0.0019095229217782617 0.05 4.760609044751618e-06
323 0.0018903607269749045 0.05 4.66554274680675e-06
324 0.0018760639941319823 0.05 4.595238351612352e-06
325 0.0018639708869159222 0.05 4.536187589110341e-06
326 0.0018443093867972493 0.05 4.4409948714019265e-06
327 0.0018326848512515426 0.05 4.385189640743192e-06
328 0.0018153194105252624 0.05 4.302480647311313e-06
329 0.0017995276721194386 0.05 4.227950284985127e-06
330 0.001797339878976345 0.05 4.217675268591847e-06
331 0.0017725430661812425 0.05 4.102101229364052e-06
332 0.0017600931460037827 0.05 4.044679371872917e-06
