
  0%|                                                                                                                                                                                                                                                                                             | 0/1 [00:00<?, ?it/s]
0, 0.1364392638206482
1, 0.1364392638206482
2, 0.12979251146316528
3, 0.11694811284542084
4, 0.09893600642681122
5, 0.07756032049655914
6, 0.055496107786893845
7, 0.03877311944961548
8, 0.027045441791415215
9, 0.019489672034978867
10, 0.015038187615573406
11, 0.012640587985515594
12, 0.011447638273239136
13, 0.010865168645977974
14, 0.01052361261099577
15, 0.010215472429990768
16, 0.009841375052928925
17, 0.009367048740386963
18, 0.008805133402347565
19, 0.008181070908904076
20, 0.007529795169830322
21, 0.0068803406320512295
22, 0.006261927075684071
23, 0.005697175860404968
24, 0.005200955085456371
25, 0.004777982831001282
26, 0.00442537572234869
27, 0.004136781673878431
28, 0.0039021612610667944
29, 0.00370899960398674
30, 0.0035452719312161207
31, 0.003400730900466442
32, 0.003265912178903818
33, 0.003134573344141245
34, 0.003003023099154234
35, 0.0028688458260148764
36, 0.0027320932131260633
37, 0.0025934623554348946
38, 0.0024547921493649483
39, 0.002318157348781824
40, 0.0021859174594283104
41, 0.0020598520059138536
42, 0.0019417082658037543
43, 0.0018322651740163565
44, 0.0017320908373221755
45, 0.0016413177363574505
46, 0.0015594982542097569
47, 0.001486041583120823
48, 0.001420257380232215
49, 0.001361209899187088
50, 0.001307933358475566
51, 0.001259670127183199
52, 0.0012156193843111396
53, 0.0011752533027902246
54, 0.0011379175120964646
55, 0.0011033841874450445
56, 0.001071291626431048
57, 0.0010414044372737408
58, 0.0010135903721675277
59, 0.0009876755066215992
60, 0.0009635766036808491
61, 0.0009412589715793729
62, 0.0009204860543832183
63, 0.0009013375965878367
64, 0.000883611268363893
65, 0.0008672483963891864
66, 0.000852214521728456
67, 0.0008383369422517717
68, 0.000825607858132571
69, 0.0008138769189827144
70, 0.0008030877215787768
71, 0.0007932503940537572
72, 0.0007841381011530757
73, 0.000775833148509264
74, 0.0007682560826651752
75, 0.0007613043999299407
76, 0.0007549148867838085
77, 0.0007491252617910504
78, 0.0007438459433615208
79, 0.0007390788523480296
80, 0.0007347359205596149
81, 0.0007308343192562461
82, 0.0007273414521478117
83, 0.0007242296705953777
84, 0.0007214489160105586
85, 0.0007189512252807617
86, 0.0007168354350142181
87, 0.0007149692974053323
88, 0.0007133380277082324
89, 0.0007119943620637059
90, 0.0007108605350367725
91, 0.0007098864298313856
92, 0.0007091154111549258
93, 0.0007084873504936695
94, 0.0007080167415551841
95, 0.0007076672045513988
96, 0.000707426923327148
97, 0.0007072847802191973
98, 0.0007071903673931956
99, 0.0007071485742926598
0 2.419102907180786 0.05 7.64050817489624
1 2.25905442237854 0.05 6.662955284118652
2 2.0915675163269043 0.05 5.7115936279296875
3 1.8938101530075073 0.05 4.682592391967773
4 1.6141159534454346 0.05 3.4015979766845703
5 1.2362349033355713 0.05 1.995333194732666
6 0.8045524954795837 0.05 0.8451275825500488
7 0.5749050378799438 0.05 0.4315248131752014
8 0.47207510471343994 0.05 0.2909616231918335
9 0.3923106789588928 0.05 0.20094339549541473
10 0.33781957626342773 0.05 0.1489989310503006
11 0.2966668903827667 0.05 0.11490835249423981
12 0.26517996191978455 0.05 0.09181103855371475
13 0.2400786131620407 0.05 0.07525241374969482
14 0.2195567637681961 0.05 0.06293715536594391
15 0.2026420682668686 0.05 0.053613316267728806
16 0.18851841986179352 0.05 0.04640033096075058
17 0.17652937769889832 0.05 0.04068623483181
18 0.1661868393421173 0.05 0.03605842590332031
19 0.15711985528469086 0.05 0.03223113715648651
20 0.14907148480415344 0.05 0.02901367098093033
21 0.14183014631271362 0.05 0.02626337856054306
22 0.13528507947921753 0.05 0.023895341902971268
23 0.1293092668056488 0.05 0.021830957382917404
24 0.12385138124227524 0.05 0.02002696692943573
25 0.118838369846344 0.05 0.0184385534375906
26 0.11421480774879456 0.05 0.0170317143201828
27 0.10994168370962143 0.05 0.015781134366989136
28 0.10597798973321915 0.05 0.014663741923868656
29 0.10228685289621353 0.05 0.013660075142979622
30 0.09884265810251236 0.05 0.012755641713738441
31 0.09561891108751297 0.05 0.011937161907553673
32 0.09259271621704102 0.05 0.01119353249669075
33 0.08974522352218628 0.05 0.010515650734305382
34 0.08704813569784164 0.05 0.009893100708723068
35 0.08449634909629822 0.05 0.009321575984358788
36 0.08207874000072479 0.05 0.008795790374279022
37 0.07977838814258575 0.05 0.008309673517942429
38 0.07757721096277237 0.05 0.00785745307803154
39 0.07548884302377701 0.05 0.007440104614943266
40 0.0734870582818985 0.05 0.007050748448818922
41 0.07156748324632645 0.05 0.006687209941446781
42 0.06972777098417282 0.05 0.006347826216369867
43 0.06796470284461975 0.05 0.006030876189470291
44 0.06626153737306595 0.05 0.005732400342822075
45 0.06462763249874115 0.05 0.00545318191871047
46 0.06305411458015442 0.05 0.005190872587263584
47 0.06153953820466995 0.05 0.004944495391100645
48 0.06006944552063942 0.05 0.0047110822051763535
49 0.058657485991716385 0.05 0.004492213949561119
50 0.057292789220809937 0.05 0.004285617731511593
51 0.055967576801776886 0.05 0.00408965302631259
52 0.05469686537981033 0.05 0.0039060553535819054
53 0.053458862006664276 0.05 0.0037312377244234085
54 0.05226125195622444 0.05 0.003565932624042034
55 0.05109819397330284 0.05 0.0034089810214936733
56 0.049975812435150146 0.05 0.0032608676701784134
57 0.048885684460401535 0.05 0.0031201601959764957
58 0.0478292852640152 0.05 0.0029867663979530334
59 0.04680121690034866 0.05 0.0028597479686141014
60 0.04580792039632797 0.05 0.002739647403359413
61 0.04484476521611214 0.05 0.002625651191920042
62 0.04390174150466919 0.05 0.0025163847021758556
63 0.042993392795324326 0.05 0.002413331065326929
64 0.04210507869720459 0.05 0.002314634621143341
65 0.04124680906534195 0.05 0.0022212332114577293
66 0.04040907323360443 0.05 0.0021319217048585415
67 0.03959348052740097 0.05 0.002046731300652027
68 0.03880263492465019 0.05 0.001965784467756748
69 0.03803473711013794 0.05 0.001888749422505498
70 0.03728874400258064 0.05 0.0018153861165046692
71 0.03655672445893288 0.05 0.0017448097933083773
72 0.03584890067577362 0.05 0.0016778962453827262
73 0.035155534744262695 0.05 0.0016136186895892024
74 0.03448476269841194 0.05 0.001552630215883255
75 0.0338311530649662 0.05 0.00149433221668005
76 0.03319157660007477 0.05 0.0014383656671270728
77 0.03257394954562187 0.05 0.0013853335985913873
78 0.03196749463677406 0.05 0.001334229833446443
79 0.03137733414769173 0.05 0.0012854214292019606
80 0.0308009535074234 0.05 0.0012386307353153825
81 0.030240140855312347 0.05 0.0011939362157136202
82 0.029694225639104843 0.05 0.0011512178461998701
83 0.029163653030991554 0.05 0.0011104458244517446
84 0.02864484302699566 0.05 0.0010712884832173586
85 0.0281352736055851 0.05 0.0010335126426070929
86 0.027637260034680367 0.05 0.0009972488041967154
87 0.02715642750263214 0.05 0.0009628502884879708
88 0.026682961732149124 0.05 0.0009295688942074776
89 0.02622286230325699 0.05 0.000897787744179368
90 0.02577097713947296 0.05 0.000867112074047327
91 0.025335103273391724 0.05 0.000838028616271913
92 0.024903250858187675 0.05 0.0008097027312032878
93 0.02448674663901329 0.05 0.0007828448433429003
94 0.02407679706811905 0.05 0.0007568519795313478
95 0.023675013333559036 0.05 0.0007318026619032025
96 0.02328539825975895 0.05 0.000707914587110281
97 0.02290411666035652 0.05 0.0006849211640655994
98 0.022528966888785362 0.05 0.0006626681424677372
99 0.022163953632116318 0.05 0.0006413690280169249
100 0.0218083243817091 0.05 0.000620952108874917
101 0.021459368988871574 0.05 0.0006012393278069794
102 0.021115485578775406 0.05 0.0005821242230013013
103 0.02078029327094555 0.05 0.0005637893336825073
104 0.020453840494155884 0.05 0.0005462145199999213
105 0.020137062296271324 0.05 0.0005294264992699027
106 0.01982131414115429 0.05 0.0005129539640620351
107 0.019515685737133026 0.05 0.0004972572205588222
108 0.019211865961551666 0.05 0.0004818952293135226
109 0.01892131194472313 0.05 0.00046742940321564674
110 0.01863294653594494 0.05 0.00045329047134146094
111 0.01834976114332676 0.05 0.0004396168515086174
112 0.01807437278330326 0.05 0.00042652053525671363
113 0.017803575843572617 0.05 0.00041383577627129853
114 0.017539655789732933 0.05 0.0004016572784166783
115 0.017279960215091705 0.05 0.0003898512804880738
116 0.017023861408233643 0.05 0.0003783812280744314
117 0.0167740136384964 0.05 0.0003673562896437943
118 0.016530716791749 0.05 0.0003567770472727716
119 0.016294730827212334 0.05 0.0003466632915660739
120 0.016052523627877235 0.05 0.00033643419737927616
121 0.015826990827918053 0.05 0.0003270469605922699
122 0.015599709935486317 0.05 0.00031772145302966237
123 0.01537777204066515 0.05 0.0003087453078478575
124 0.015158819034695625 0.05 0.00030001584673300385
125 0.014945429749786854 0.05 0.00029162870487198234
126 0.014735636301338673 0.05 0.00028349884087219834
127 0.014529481530189514 0.05 0.00027562188915908337
128 0.01432812586426735 0.05 0.0002680354518815875
129 0.014129102230072021 0.05 0.0002606408961582929
130 0.013940430246293545 0.05 0.0002537265536375344
131 0.013745478354394436 0.05 0.00024667958496138453
132 0.013563716784119606 0.05 0.0002401988604106009
133 0.013372722081840038 0.05 0.00023348184186033905
134 0.013190733268857002 0.05 0.00022717022511642426
135 0.01301533728837967 0.05 0.00022116904438007623
136 0.012843077071011066 0.05 0.00021535338601097465
137 0.012667548842728138 0.05 0.00020950708130840212
138 0.01250320766121149 0.05 0.00020410629804246128
139 0.012340019457042217 0.05 0.00019881318439729512
140 0.012174548581242561 0.05 0.00019351704395376146
141 0.012014053761959076 0.05 0.00018844848091248423
142 0.011860080063343048 0.05 0.00018364907009527087
143 0.011703428812325 0.05 0.00017882970860227942
144 0.011554266326129436 0.05 0.00017430033767595887
145 0.011404418386518955 0.05 0.00016980864165816456
146 0.011258136481046677 0.05 0.00016548039275221527
147 0.011113173328340054 0.05 0.00016124625108204782
148 0.01097132544964552 0.05 0.00015715623158030212
149 0.010830306448042393 0.05 0.0001531422312837094
150 0.010695050470530987 0.05 0.00014934103819541633
151 0.01056466531008482 0.05 0.00014572194777429104
152 0.01042542327195406 0.05 0.0001419060572516173
153 0.01029684767127037 0.05 0.000138427407364361
154 0.010170028544962406 0.05 0.00013503858644980937
155 0.010044284164905548 0.05 0.0001317199203185737
156 0.009920084848999977 0.05 0.0001284825848415494
157 0.009795949794352055 0.05 0.000125287173432298
158 0.009677737951278687 0.05 0.00012228163541294634
159 0.009559632278978825 0.05 0.00011931522749364376
160 0.00944423582404852 0.05 0.00011645206541288644
161 0.009328918531537056 0.05 0.0001136255741585046
162 0.009217443875968456 0.05 0.00011092627391917631
163 0.009104767814278603 0.05 0.00010823089542100206
164 0.008994546718895435 0.05 0.0001056263135978952
165 0.008890558034181595 0.05 0.00010319806460756809
166 0.008779948577284813 0.05 0.00010064622620120645
167 0.008681431412696838 0.05 9.840025450102985e-05
168 0.008572276681661606 0.05 9.594134462531656e-05
169 0.008479209616780281 0.05 9.386944293510169e-05
170 0.008372746407985687 0.05 9.152702114079148e-05
171 0.008276532404124737 0.05 8.943556167650968e-05
172 0.008179685100913048 0.05 8.73547833180055e-05
173 0.008087786845862865 0.05 8.54029567562975e-05
174 0.007990949787199497 0.05 8.337010513059795e-05
175 0.007896067574620247 0.05 8.140200952766463e-05
176 0.007805312052369118 0.05 7.954153988976032e-05
177 0.007717357017099857 0.05 7.775901030981913e-05
178 0.0076261283829808235 0.05 7.593145710416138e-05
179 0.007547150831669569 0.05 7.436687883455306e-05
180 0.007452347315847874 0.05 7.25102872820571e-05
181 0.00736941397190094 0.05 7.090541475918144e-05
182 0.007287696003913879 0.05 6.934162956895307e-05
183 0.007209366653114557 0.05 6.785904406569898e-05
184 0.007124405819922686 0.05 6.62690436001867e-05
185 0.007046116981655359 0.05 6.482061871793121e-05
186 0.006966803688555956 0.05 6.336954538710415e-05
187 0.006890651769936085 0.05 6.199178460519761e-05
188 0.006811147090047598 0.05 6.056950951460749e-05
189 0.006736495532095432 0.05 5.92490796407219e-05
190 0.006665610708296299 0.05 5.800872895633802e-05
191 0.006588454358279705 0.05 5.667356890626252e-05
192 0.00651750061661005 0.05 5.545945532503538e-05
193 0.006444364320486784 0.05 5.4221767641138285e-05
194 0.006375797092914581 0.05 5.307407627697103e-05
195 0.006305029150098562 0.05 5.190243246033788e-05
196 0.0062380884774029255 0.05 5.08061857544817e-05
197 0.006169542204588652 0.05 4.9695769121171907e-05
198 0.006099828984588385 0.05 4.857902240473777e-05
199 0.006036188919097185 0.05 4.7570654714945704e-05
200 0.0059703621082007885 0.05 4.653875657822937e-05
201 0.005912517663091421 0.05 4.564134360407479e-05
202 0.005842669401317835 0.05 4.4569329475052655e-05
203 0.005781624931842089 0.05 4.364287087810226e-05
204 0.005725312512367964 0.05 4.279685526853427e-05
205 0.005661902483552694 0.05 4.1854123992379755e-05
206 0.005603109486401081 0.05 4.0989412809722126e-05
207 0.005543663632124662 0.05 4.0124279621522874e-05
208 0.005483557935804129 0.05 3.925892451661639e-05
209 0.005429256707429886 0.05 3.8485246477648616e-05
210 0.005372358486056328 0.05 3.768282476812601e-05
211 0.005315435118973255 0.05 3.6888508475385606e-05
212 0.005257223732769489 0.05 3.608497354434803e-05
213 0.005202797241508961 0.05 3.534169081831351e-05
214 0.005151491146534681 0.05 3.464809924480505e-05
215 0.005099277012050152 0.05 3.3949294447666034e-05
216 0.005044414661824703 0.05 3.322271004435606e-05
217 0.0049990881234407425 0.05 3.262834798078984e-05
218 0.00494346534833312 0.05 3.190630377503112e-05
219 0.004887023475021124 0.05 3.118188396911137e-05
220 0.004840370267629623 0.05 3.058938091271557e-05
221 0.004795852582901716 0.05 3.0029295885469764e-05
222 0.004749064799398184 0.05 2.9446227927110158e-05
223 0.0046968827955424786 0.05 2.880268220906146e-05
224 0.004649982787668705 0.05 2.823034446919337e-05
225 0.0046020569279789925 0.05 2.7651421987684444e-05
226 0.00455899303779006 0.05 2.7136340577271767e-05
227 0.004514350555837154 0.05 2.6607496693031862e-05
228 0.004464642610400915 0.05 2.6024772523669526e-05
229 0.004424388986080885 0.05 2.5557601475156844e-05
230 0.004374417010694742 0.05 2.4983535695355386e-05
231 0.0043345289304852486 0.05 2.452998887747526e-05
232 0.004291594494134188 0.05 2.404644328635186e-05
233 0.004249169956892729 0.05 2.357336961722467e-05
234 0.004204932600259781 0.05 2.308508919668384e-05
235 0.004165260586887598 0.05 2.2651543986285105e-05
236 0.0041262381710112095 0.05 2.222910916316323e-05
237 0.004084664862602949 0.05 2.1783434931421652e-05
238 0.00404305849224329 0.05 2.1341926185414195e-05
239 0.004004123620688915 0.05 2.0932853658450767e-05
240 0.003967341501265764 0.05 2.055004188150633e-05
241 0.003933075349777937 0.05 2.019659041252453e-05
242 0.00389499356970191 0.05 1.980737579287961e-05
243 0.003853728761896491 0.05 1.9389910448808223e-05
244 0.0038162025157362223 0.05 1.9014121789950877e-05
245 0.0037802234292030334 0.05 1.8657285181689076e-05
246 0.003749113529920578 0.05 1.8351463950239122e-05
247 0.0037047972436994314 0.05 1.79201815626584e-05
248 0.00367177277803421 0.05 1.7602123989490792e-05
249 0.0036423641722649336 0.05 1.7321290215477347e-05
250 0.0036041894927620888 0.05 1.6960111679509282e-05
251 0.003569749416783452 0.05 1.6637535736663267e-05
252 0.003540294710546732 0.05 1.6364105249522254e-05
253 0.003502493491396308 0.05 1.601651638338808e-05
254 0.003468339331448078 0.05 1.570567474118434e-05
255 0.0034400136210024357 0.05 1.545019040349871e-05
256 0.003405578201636672 0.05 1.5142414667934645e-05
257 0.003369700163602829 0.05 1.4825043763266876e-05
258 0.0033482990693300962 0.05 1.4637333151767962e-05
259 0.0033086142502725124 0.05 1.4292420019046403e-05
260 0.0032780771143734455 0.05 1.4029811609361786e-05
261 0.003247868502512574 0.05 1.3772423699265346e-05
262 0.003226575441658497 0.05 1.3592431059805676e-05
263 0.003189119976013899 0.05 1.327868812950328e-05
264 0.003158249892294407 0.05 1.3022862731304485e-05
265 0.0031326988246291876 0.05 1.2812997738365084e-05
266 0.0031001875177025795 0.05 1.254843118658755e-05
267 0.003072781255468726 0.05 1.2327552212809678e-05
268 0.003049156628549099 0.05 1.2138722013332881e-05
269 0.0030187491793185472 0.05 1.1897824151674286e-05
270 0.002989777596667409 0.05 1.1670546882669441e-05
271 0.00296420743688941 0.05 1.1471776815596968e-05
272 0.002937748096883297 0.05 1.126788993133232e-05
273 0.002909452887251973 0.05 1.1051879482693039e-05
274 0.0028874820563942194 0.05 1.0885592928389087e-05
275 0.002857003128156066 0.05 1.0656998711056076e-05
276 0.0028332113288342953 0.05 1.0480243872734718e-05
277 0.0028071992564946413 0.05 1.0288687008142006e-05
278 0.002780840964987874 0.05 1.0096382538904436e-05
279 0.0027563623152673244 0.05 9.919414878822863e-06
280 0.002732818014919758 0.05 9.75068087427644e-06
281 0.002714528003707528 0.05 9.620600394555368e-06
282 0.002687175292521715 0.05 9.427694749319926e-06
283 0.0026624177116900682 0.05 9.254776159650646e-06
284 0.002637190045788884 0.05 9.080219570023473e-06
285 0.002613779855892062 0.05 8.919726496969815e-06
286 0.002593581797555089 0.05 8.782403710938524e-06
287 0.0025689853355288506 0.05 8.616616469225846e-06
288 0.002547389827668667 0.05 8.472357876598835e-06
289 0.002524442272260785 0.05 8.320403139805421e-06
290 0.0025045813526958227 0.05 8.189997970475815e-06
291 0.0024793974589556456 0.05 8.026121577131562e-06
292 0.002458890900015831 0.05 7.893906513345428e-06
293 0.0024387482553720474 0.05 7.765107511659153e-06
294 0.0024156919680535793 0.05 7.618975359946489e-06
295 0.002395822899416089 0.05 7.494158580811927e-06
296 0.002375531941652298 0.05 7.367755188170122e-06
297 0.002354760654270649 0.05 7.239473688969156e-06
298 0.0023327036760747433 0.05 7.104485121089965e-06
299 0.0023147184401750565 0.05 6.995355761318933e-06
300 0.0022930847480893135 0.05 6.865208888484631e-06
301 0.002275921870023012 0.05 6.762826615158701e-06
302 0.0022657844237983227 0.05 6.70271356284502e-06
303 0.002238264074549079 0.05 6.540878530358896e-06
304 0.0022157072089612484 0.05 6.409708021237748e-06
305 0.0022002747282385826 0.05 6.3207307903212495e-06
306 0.002185454359278083 0.05 6.235869477677625e-06
307 0.0021647519897669554 0.05 6.118285455158912e-06
308 0.002143989782780409 0.05 6.0014867813151795e-06
309 0.002123210346326232 0.05 5.885719019715907e-06
310 0.002107557374984026 0.05 5.799255632155109e-06
311 0.002089770743623376 0.05 5.701784175471403e-06
312 0.0020735166035592556 0.05 5.613432222162373e-06
313 0.0020559111144393682 0.05 5.5185137171065435e-06
314 0.0020399943459779024 0.05 5.4333968364517204e-06
315 0.002024485031142831 0.05 5.351093932404183e-06
316 0.0020024199038743973 0.05 5.2350851547089405e-06
317 0.001993238925933838 0.05 5.187190708966227e-06
318 0.0019782932940870523 0.05 5.109693120175507e-06
319 0.001959155546501279 0.05 5.011309895053273e-06
320 0.0019405102357268333 0.05 4.916379111818969e-06
321 0.0019248208263888955 0.05 4.837200322072022e-06
322 0.0019100132631137967 0.05 4.7630619519623e-06
323 0.0018998401938006282 0.05 4.7124594857450575e-06
324 0.001879488816484809 0.05 4.612039447238203e-06
325 0.0018585675861686468 0.05 4.5099345697963145e-06
326 0.0018453398952260613 0.05 4.445966624189168e-06
327 0.0018311348976567388 0.05 4.377781806397252e-06
328 0.0018157511949539185 0.05 4.3045338316005655e-06
329 0.0018022775184363127 0.05 4.240888301865198e-06
330 0.0017895173514261842 0.05 4.1810494622041006e-06
331 0.0017743149073794484 0.05 4.11031305702636e-06
332 0.0017618174897506833 0.05 4.052614713145886e-06
333 0.0017445461126044393 0.05 3.973546881752554e-06
