
  0%|                                                                                                                                                                                                                                                                                            | 0/10 [00:00<?, ?it/s]
0, 0.1364392638206482
1, 0.1364392638206482
2, 0.12979233264923096
3, 0.11694787442684174
4, 0.09893616288900375
5, 0.07756020128726959
6, 0.05549618601799011
7, 0.03877006471157074
8, 0.027035456150770187
9, 0.019472874701023102
10, 0.015018614940345287
11, 0.012625312432646751
12, 0.01144290529191494
13, 0.010874553583562374
14, 0.010546903125941753
15, 0.010251525789499283
16, 0.009884463623166084
17, 0.009414631873369217
18, 0.008851652964949608
19, 0.008223801851272583
20, 0.0075646354816854
21, 0.006907287053763866
22, 0.006282907910645008
23, 0.005717508494853973
24, 0.005225547589361668
25, 0.004811995662748814
26, 0.004473675973713398
27, 0.004202584270387888
28, 0.003987195901572704
29, 0.0038128597661852837
30, 0.003664951305836439
31, 0.0035307982470840216
32, 0.0034005213528871536
33, 0.0032666490878909826
34, 0.0031258268281817436
35, 0.0029771316330879927
36, 0.002821545582264662
37, 0.0026618451811373234
38, 0.0025013568811118603
39, 0.002343779196962714
40, 0.002192891901358962
41, 0.002051454735919833
42, 0.0019215326756238937
43, 0.0018043428426608443
44, 0.0016999132931232452
45, 0.001607692800462246
46, 0.0015265913680195808
47, 0.0014547834871336818
48, 0.0013906869571655989
49, 0.0013324389001354575
50, 0.001278691808693111
51, 0.0012283653486520052
52, 0.001180650433525443
53, 0.0011352312285453081
54, 0.0010918255429714918
55, 0.0010506014805287123
56, 0.001011638785712421
57, 0.000975035538431257
58, 0.0009409510530531406
59, 0.0009093111148104072
60, 0.0008799649658612907
61, 0.0008526868186891079
62, 0.0008272206177935004
63, 0.0008034260245040059
64, 0.0007809756207279861
65, 0.0007597574731335044
66, 0.0007394963758997619
67, 0.0007201242260634899
68, 0.0007016091840341687
69, 0.0006839583511464298
70, 0.0006670814473181963
71, 0.0006511554820463061
72, 0.000636078417301178
73, 0.0006219290080480278
74, 0.0006086252396926284
75, 0.0005961586721241474
76, 0.0005845162086188793
77, 0.0005736019811592996
78, 0.0005633628461509943
79, 0.0005537262186408043
80, 0.000544618465937674
81, 0.0005359691567718983
82, 0.0005277561722323298
83, 0.0005199214210733771
84, 0.0005124300951138139
85, 0.0005052825435996056
86, 0.0004984410479664803
87, 0.0004918919876217842
88, 0.0004856537561863661
89, 0.000479682203149423
90, 0.0004739743599202484
91, 0.00046851017395965755
92, 0.0004632865311577916
93, 0.0004582831752486527
94, 0.00045348386629484594
95, 0.0004488865379244089
96, 0.00044446345418691635
97, 0.0004402250924613327
98, 0.00043613891466520727
99, 0.0004322166205383837
100, 0.0004284388560336083
101, 0.0004247902543283999
102, 0.0004212831554468721
103, 0.000417903414927423
104, 0.0004146324936300516
105, 0.0004114725743420422
106, 0.00040840933797881007
107, 0.00040546379750594497
108, 0.0004026099923066795
109, 0.0003998386091552675
110, 0.000397161056753248
111, 0.00039458772516809404
112, 0.00039207463851198554
113, 0.0003896592534147203
114, 0.0003873048990499228
115, 0.0003850545617751777
116, 0.0003828570188488811
117, 0.0003807270841207355
118, 0.0003786761953961104
119, 0.00037667975993826985
120, 0.00037475163117051125
121, 0.00037288034218363464
122, 0.0003710621385835111
123, 0.0003693085163831711
124, 0.00036760722286999226
125, 0.0003659625072032213
126, 0.00036436435766518116
127, 0.00036282543442212045
128, 0.0003613262379076332
129, 0.0003598670882638544
130, 0.00035847234539687634
131, 0.0003571078123059124
132, 0.0003557844029273838
133, 0.00035450499854050577
134, 0.0003532799310050905
135, 0.0003520833561196923
136, 0.0003509260423015803
137, 0.0003498158766888082
138, 0.00034872861579060555
139, 0.0003476842539384961
140, 0.0003466752532403916
141, 0.00034570408752188087
142, 0.00034475591382943094
143, 0.0003438421699684113
144, 0.0003429663775023073
145, 0.0003421174769755453
146, 0.0003413059748709202
147, 0.00034051769762299955
148, 0.00033975508995354176
149, 0.00033902988070622087
150, 0.0003383266448508948
151, 0.00033765178523026407
152, 0.0003370080085005611
153, 0.00033638611785136163
154, 0.0003357904206495732
155, 0.00033521297154948115
156, 0.0003346799348946661
157, 0.0003341450064908713
158, 0.0003336525405757129
159, 0.0003331710468046367
160, 0.0003327226440887898
161, 0.0003322836710140109
162, 0.000331876304699108
163, 0.0003314820060040802
164, 0.00033110531512647867
165, 0.0003307461738586426
166, 0.00033040938433259726
167, 0.00033010062179528177
168, 0.0003297997754998505
169, 0.0003295158676337451
170, 0.0003292512847110629
171, 0.0003289993619546294
172, 0.0003287683648522943
173, 0.0003285542770754546
174, 0.000328349182382226
175, 0.00032816710881888866
176, 0.0003279876837041229
177, 0.00032782586640678346
178, 0.00032768031815066934
179, 0.0003275401541031897
180, 0.0003274209739174694
181, 0.00032730595557950437
182, 0.0003272020258009434
183, 0.0003271140740253031
184, 0.0003270270535722375
185, 0.0003269575536251068
186, 0.0003268939908593893
187, 0.00032683307654224336
188, 0.0003267903230153024
189, 0.00032674564863555133
190, 0.0003267066495027393
191, 0.0003266769926995039
192, 0.0003266521671321243
193, 0.00032663121237419546
194, 0.0003266152343712747
195, 0.0003266058338340372
196, 0.00032660560100339353
197, 0.0003265967534389347
198, 0.00032659387215971947
199, 0.0003265952109359205
0 2.4587526321411133 0.05 7.744089126586914
1 2.303966999053955 0.05 6.7997541427612305
2 2.1422300338745117 0.05 5.878586769104004
3 1.942256212234497 0.05 4.832298278808594
4 1.66011381149292 0.05 3.530339002609253
5 1.25931715965271 0.05 2.031472682952881
6 0.8230894207954407 0.05 0.867830216884613
7 0.5880422592163086 0.05 0.4429531693458557
8 0.4834774434566498 0.05 0.2994285225868225
9 0.40014827251434326 0.05 0.20510798692703247
10 0.34273526072502136 0.05 0.15047292411327362
11 0.300091952085495 0.05 0.11535844206809998
12 0.26756855845451355 0.05 0.09170877933502197
13 0.24192342162132263 0.05 0.07497155666351318
14 0.22105838358402252 0.05 0.06259717047214508
15 0.20383509993553162 0.05 0.053222909569740295
16 0.1894185096025467 0.05 0.04596058651804924
17 0.17719092965126038 0.05 0.0402182973921299
18 0.16666264832019806 0.05 0.03558092936873436
19 0.15744686126708984 0.05 0.0317547544836998
20 0.14929847419261932 0.05 0.028552981093525887
21 0.14199213683605194 0.05 0.025826726108789444
22 0.1353941708803177 0.05 0.023482300341129303
23 0.12939782440662384 0.05 0.02144838683307171
24 0.12391315400600433 0.05 0.019668694585561752
25 0.11887405067682266 0.05 0.018101509660482407
26 0.11423048377037048 0.05 0.01671493798494339
27 0.10993824899196625 0.05 0.015482401475310326
28 0.10595779120922089 0.05 0.01438157632946968
29 0.10224718600511551 0.05 0.01339193806052208
30 0.09877981245517731 0.05 0.012499051168560982
31 0.09552878141403198 0.05 0.01168985478579998
32 0.09247495979070663 0.05 0.010954410769045353
33 0.08960440754890442 0.05 0.01028488576412201
34 0.0868849828839302 0.05 0.009670080617070198
35 0.08430931717157364 0.05 0.009105250239372253
36 0.08186934143304825 0.05 0.008585849776864052
37 0.07954896986484528 0.05 0.008106060326099396
38 0.07734131067991257 0.05 0.00766238197684288
39 0.07523210346698761 0.05 0.00725015252828598
40 0.0732177197933197 0.05 0.006867094896733761
41 0.07129472494125366 0.05 0.006511117331683636
42 0.06945063173770905 0.05 0.006178643554449081
43 0.06768369674682617 0.05 0.005868253298103809
44 0.06598661094903946 0.05 0.005577664822340012
45 0.06435524672269821 0.05 0.005305282771587372
46 0.06278729438781738 0.05 0.0050499169155955315
47 0.06128143146634102 0.05 0.004810592159628868
48 0.05982716754078865 0.05 0.004584981594234705
49 0.05842387676239014 0.05 0.0043724155984818935
50 0.05707268416881561 0.05 0.004172509536147118
51 0.05576048791408539 0.05 0.003982848953455687
52 0.054503705352544785 0.05 0.003805333748459816
53 0.05328608304262161 0.05 0.0036372090689837933
54 0.052105050534009933 0.05 0.0034777657128870487
55 0.050963666290044785 0.05 0.0033270707353949547
56 0.049859967082738876 0.05 0.0031845250632613897
57 0.048791635781526566 0.05 0.003049519844353199
58 0.04775305837392807 0.05 0.00292107742279768
59 0.046751029789447784 0.05 0.002799774520099163
60 0.0457741804420948 0.05 0.0026839959900826216
61 0.04482690989971161 0.05 0.00257405755110085
62 0.04391105845570564 0.05 0.0024699519854038954
63 0.04301803186535835 0.05 0.002370509784668684
64 0.04215238615870476 0.05 0.002276066690683365
65 0.04131044074892998 0.05 0.0021860513370484114
66 0.04049194976687431 0.05 0.00210028444416821
67 0.03969687223434448 0.05 0.0020186137408018112
68 0.03892401605844498 0.05 0.0019407786894589663
69 0.03817103058099747 0.05 0.0018664163071662188
70 0.03743765503168106 0.05 0.0017953866627067327
71 0.03672706335783005 0.05 0.0017278781160712242
72 0.036031704396009445 0.05 0.0016630692407488823
73 0.03535662963986397 0.05 0.0016013358253985643
74 0.034697093069553375 0.05 0.0015421509742736816
75 0.03405669331550598 0.05 0.001485749613493681
76 0.03343438729643822 0.05 0.0014319485053420067
77 0.032821618020534515 0.05 0.0013799414737150073
78 0.03222634643316269 0.05 0.0013303403975442052
79 0.031645867973566055 0.05 0.0012828466715291142
80 0.03108169697225094 0.05 0.0012375139631330967
81 0.03052712418138981 0.05 0.0011937476228922606
82 0.02999274432659149 0.05 0.0011523200664669275
83 0.02946976013481617 0.05 0.001112484373152256
84 0.02895725518465042 0.05 0.0010741266887634993
85 0.028461365029215813 0.05 0.001037652837112546
86 0.02796708606183529 0.05 0.001001924742013216
87 0.02749241515994072 0.05 0.0009682030649855733
88 0.027026666328310966 0.05 0.000935676391236484
89 0.026570472866296768 0.05 0.0009043556638062
90 0.02613024413585663 0.05 0.0008746366365812719
91 0.02569279819726944 0.05 0.0008455970673821867
92 0.025271087884902954 0.05 0.0008180663571693003
93 0.024852750822901726 0.05 0.0007912060827948153
94 0.024447984993457794 0.05 0.0007656439556740224
95 0.024054476991295815 0.05 0.0007411951082758605
96 0.023663416504859924 0.05 0.0007172914338298142
97 0.02328409068286419 0.05 0.0006944792112335563
98 0.022915061563253403 0.05 0.0006726401625201106
99 0.022553686052560806 0.05 0.0006515919812954962
tuning, 0, 0.0003565108054317534
tuning, 1, 0.0007121881353668869
tuning, 2, 0.005660706665366888
tuning, 3, 0.0025336584076285362
tuning, 4, 0.003693029284477234
tuning, 5, 0.0036197169683873653
tuning, 6, 0.0018273803871124983
tuning, 7, 0.0012815999798476696
tuning, 8, 0.001884010387584567
tuning, 9, 0.0018737310310825706
tuning, 10, 0.0014014140469953418
tuning, 11, 0.0012253616005182266
tuning, 12, 0.0012737785000354052
tuning, 13, 0.0011880454840138555
tuning, 14, 0.001323008444160223
tuning, 15, 0.0013600361999124289
tuning, 16, 0.0010854497086256742
tuning, 17, 0.0008450410095974803
tuning, 18, 0.0007060576463118196
tuning, 19, 0.0008743555517867208
tuning, 20, 0.001180304097943008
tuning, 21, 0.0010431237751618028
tuning, 22, 0.0006401638383977115
tuning, 23, 0.0005371106090024114
tuning, 24, 0.000662892300169915
tuning, 25, 0.0007062043878249824
tuning, 26, 0.0006348591996356845
tuning, 27, 0.0005568308988586068
tuning, 28, 0.0005313740111887455
tuning, 29, 0.0005299413460306823
tuning, 30, 0.0005323960212990642
tuning, 31, 0.0005312197608873248
tuning, 32, 0.00042471353663131595
tuning, 33, 0.0003886806662194431
tuning, 34, 0.0004211752093397081
tuning, 35, 0.00037230001180432737
tuning, 36, 0.00040040089515969157
tuning, 37, 0.00044101252569817007
tuning, 38, 0.0003763781569432467
tuning, 39, 0.00034133775625377893

 10%|███████████████████████████▌                                                                                                                                                                                                                                                        | 1/10 [01:28<13:16, 88.54s/it]
0, 0.1123598963022232
1, 0.1123598963022232
2, 0.10478752851486206
3, 0.09046950936317444
4, 0.07124524563550949
5, 0.05020023509860039
6, 0.03146933764219284
7, 0.020328551530838013
8, 0.0148653294891119
9, 0.012927066534757614
10, 0.012798408977687359
11, 0.013364201411604881
12, 0.014018263667821884
13, 0.014490405097603798
14, 0.014691519550979137
15, 0.014629175886511803
16, 0.014349047094583511
17, 0.013909509405493736
18, 0.013365226797759533
19, 0.012757370248436928
20, 0.012116378173232079
21, 0.011461812071502209
22, 0.010808318853378296
23, 0.01016521081328392
24, 0.009541629813611507
25, 0.00894534308463335
26, 0.00838365126401186
27, 0.007863045670092106
28, 0.0073874699883162975
29, 0.006958803161978722
30, 0.006577323190867901
31, 0.00623898534104228
32, 0.0059380619786679745
33, 0.005669135134667158
34, 0.005425212439149618
35, 0.005200265906751156
36, 0.004989948123693466
37, 0.004791082348674536
38, 0.0046018995344638824
39, 0.004421288147568703
40, 0.004248862154781818
41, 0.004084703978151083
42, 0.003928991965949535
43, 0.003782882122322917
44, 0.003646878292784095
45, 0.0035208200570195913
46, 0.0034048929810523987
47, 0.003298955736681819
48, 0.003202250227332115
49, 0.0031141075305640697
50, 0.0030337264761328697
51, 0.002960033481940627
52, 0.0028917454183101654
53, 0.0028279018588364124
54, 0.002767617581412196
55, 0.0027105272747576237
56, 0.0026564623694866896
57, 0.0026049986481666565
58, 0.00255579873919487
59, 0.0025085960514843464
60, 0.002463357523083687
61, 0.0024201206397265196
62, 0.0023789554834365845
63, 0.002339827362447977
64, 0.0023025674745440483
65, 0.0022671609185636044
66, 0.002233399311080575
67, 0.0022011632099747658
68, 0.0021703927777707577
69, 0.0021408586762845516
70, 0.0021123592741787434
71, 0.0020849029533565044
72, 0.00205843523144722
73, 0.002032614080235362
74, 0.002007623901590705
75, 0.001983494497835636
76, 0.001960056833922863
77, 0.0019371988018974662
78, 0.0019149202853441238
79, 0.001893362496048212
80, 0.0018723340472206473
81, 0.0018520391313359141
82, 0.0018323126714676619
83, 0.001813114620745182
84, 0.0017945533618330956
85, 0.0017764631193131208
86, 0.001758865430019796
87, 0.0017416682094335556
88, 0.001724910456687212
89, 0.0017085447907447815
90, 0.0016925493255257607
91, 0.0016768266214057803
92, 0.0016614506021142006
93, 0.001646420219913125
94, 0.0016316610854119062
95, 0.0016172761097550392
96, 0.0016031854320317507
97, 0.0015894256066530943
98, 0.0015759471571072936
99, 0.001562807708978653
100, 0.0015499101718887687
101, 0.0015372661873698235
102, 0.00152488611638546
103, 0.0015127058140933514
104, 0.001500840182416141
105, 0.0014891584869474173
106, 0.0014777034521102905
107, 0.0014665377093479037
108, 0.0014555116649717093
109, 0.0014447493012994528
110, 0.001434172736480832
111, 0.0014238525182008743
112, 0.0014137050602585077
113, 0.00140379776712507
114, 0.0013940930366516113
115, 0.001384480856359005
116, 0.0013751414371654391
117, 0.0013660481199622154
118, 0.0013571478193625808
119, 0.001348495832644403
120, 0.0013399540912359953
121, 0.001331598381511867
122, 0.0013233895879238844
123, 0.001315381727181375
124, 0.0013075856259092689
125, 0.0012999799801036716
126, 0.001292490866035223
127, 0.0012852104846388102
128, 0.0012781400000676513
129, 0.0012711603194475174
130, 0.0012643788941204548
131, 0.0012578073656186461
132, 0.0012514006812125444
133, 0.0012451396323740482
134, 0.0012390769552439451
135, 0.00123312056530267
136, 0.001227336237207055
137, 0.0012217862531542778
138, 0.0012163404608145356
139, 0.0012110525276511908
140, 0.0012059244327247143
141, 0.001200926722958684
142, 0.0011960871051996946
143, 0.0011913704220205545
144, 0.0011868171859532595
145, 0.0011824311222881079
146, 0.0011781553039327264
147, 0.00117401871830225
148, 0.0011700610630214214
149, 0.0011661718599498272
150, 0.0011624321341514587
151, 0.0011588537599891424
152, 0.001155372243374586
153, 0.0011520464904606342
154, 0.001148823881521821
155, 0.0011457500513643026
156, 0.0011427749413996935
157, 0.0011399334762245417
158, 0.0011372140143066645
159, 0.0011345831444486976
160, 0.0011320877820253372
161, 0.0011296623852103949
162, 0.001127383904531598
163, 0.0011252255644649267
164, 0.0011231781681999564
165, 0.0011211605742573738
166, 0.0011193112004548311
167, 0.0011175342369824648
168, 0.0011158722918480635
169, 0.0011142836883664131
170, 0.0011127940379083157
171, 0.0011113539803773165
172, 0.0011100532719865441
173, 0.0011088255560025573
174, 0.0011076608207076788
175, 0.001106600626371801
176, 0.0011056510265916586
177, 0.0011046960717067122
178, 0.0011038361117243767
179, 0.001103061600588262
180, 0.0011023548431694508
181, 0.0011016948847100139
182, 0.001101129688322544
183, 0.0011006025597453117
184, 0.0011001480743288994
185, 0.0010997175704687834
186, 0.0010993191972374916
187, 0.001099025714211166
188, 0.0010987399145960808
189, 0.0010984911350533366
190, 0.0010983224492520094
191, 0.0010981407249346375
192, 0.0010980209335684776
193, 0.0010978898499161005
194, 0.0010977983474731445
195, 0.0010977567872032523
196, 0.0010977019555866718
197, 0.0010976637713611126
198, 0.0010976778576150537
199, 0.00109767762478441
0 2.895477056503296 0.05 8.142223358154297
1 2.7242228984832764 0.05 7.207554817199707
2 2.5453245639801025 0.05 6.292004585266113
3 2.350580930709839 0.05 5.366030693054199
4 2.111729383468628 0.05 4.330910682678223
5 1.746245265007019 0.05 2.961510181427002
6 1.3107280731201172 0.05 1.6685067415237427
7 0.9743762016296387 0.05 0.9220533967018127
8 0.7708752155303955 0.05 0.5771263241767883
9 0.64715176820755 0.05 0.4067382216453552
10 0.5521215796470642 0.05 0.2960548400878906
11 0.47512391209602356 0.05 0.21923834085464478
12 0.41509607434272766 0.05 0.16734008491039276
13 0.3678448498249054 0.05 0.1314111202955246
14 0.33126893639564514 0.05 0.10657715797424316
15 0.3018730878829956 0.05 0.0885016918182373
16 0.27774640917778015 0.05 0.07492032647132874
17 0.2575741708278656 0.05 0.06443285942077637
18 0.2404138743877411 0.05 0.0561334565281868
19 0.2255300134420395 0.05 0.049398235976696014
20 0.2124495953321457 0.05 0.043834347277879715
21 0.20083250105381012 0.05 0.03917153924703598
22 0.19047261774539948 0.05 0.0352344810962677
23 0.18117359280586243 0.05 0.03187810629606247
24 0.17280279099941254 0.05 0.02900041826069355
25 0.16524043679237366 0.05 0.026517674326896667
26 0.1583644151687622 0.05 0.024356670677661896
27 0.15208275616168976 0.05 0.022462736815214157
28 0.14629603922367096 0.05 0.020785851404070854
29 0.14095404744148254 0.05 0.019295580685138702
30 0.1360017955303192 0.05 0.01796354539692402
31 0.13138501346111298 0.05 0.016764648258686066
32 0.12709078192710876 0.05 0.015686672180891037
33 0.12307114154100418 0.05 0.014710084535181522
34 0.11930257827043533 0.05 0.013823002576828003
35 0.11576785892248154 0.05 0.01301603578031063
36 0.11243105679750443 0.05 0.01227652095258236
37 0.1092822328209877 0.05 0.011598499491810799
38 0.10629718005657196 0.05 0.01097352709621191
39 0.10347121953964233 0.05 0.010397810488939285
40 0.1007753387093544 0.05 0.009863050654530525
41 0.09821426868438721 0.05 0.009368108585476875
42 0.09577744454145432 0.05 0.008909006603062153
43 0.09344044327735901 0.05 0.008479543030261993
44 0.091208316385746 0.05 0.00807926058769226
45 0.08907826989889145 0.05 0.007706307340413332
46 0.08702007681131363 0.05 0.007354306057095528
47 0.08505899459123611 0.05 0.007026566658169031
48 0.08317632228136063 0.05 0.006718960590660572
49 0.08136873692274094 0.05 0.006430101580917835
50 0.0796286091208458 0.05 0.006158018484711647
51 0.07795348018407822 0.05 0.005901653319597244
52 0.07634115219116211 0.05 0.0056600491516292095
53 0.07478917390108109 0.05 0.005432255566120148
54 0.07328838855028152 0.05 0.005216426216065884
55 0.0718548446893692 0.05 0.00501435250043869
