
  0%|                                                                                                                                                                                                                                                                                                                                                                              | 0/10 [00:00<?, ?it/s]
0, 0.1364392638206482
1, 0.1364392638206482
2, 0.1297922432422638
3, 0.11694812029600143
4, 0.09893609583377838
5, 0.07756037265062332
6, 0.05549609288573265
7, 0.03882565349340439
8, 0.027222251519560814
9, 0.019793206825852394
10, 0.015392991714179516
11, 0.01293947920203209
12, 0.011598201468586922
13, 0.0108183017000556
14, 0.010276596993207932
15, 0.00980822741985321
16, 0.009342357516288757
17, 0.008861801587045193
18, 0.008372649550437927
19, 0.007891915738582611
20, 0.007438347674906254
21, 0.007025775965303183
22, 0.006664301734417677
23, 0.00635859090834856
24, 0.006110639311373234
25, 0.005919455550611019
26, 0.0057799434289336205
27, 0.0056865038350224495
28, 0.005631632171571255
29, 0.0056062969379127026
0 2.512310266494751 0.05 7.140223503112793 0.7761811017990112
1 2.3512051105499268 0.05 6.253833293914795 0.7223525047302246
2 2.1823205947875977 0.05 5.387687683105469 0.6759252548217773
3 1.9794594049453735 0.05 4.432599067687988 0.6482250690460205
4 1.6754651069641113 0.05 3.1756751537323 0.6443657875061035
5 1.2964726686477661 0.05 1.9014811515808105 0.6452744007110596
6 0.9131186604499817 0.05 0.9432346820831299 0.6506649255752563
7 0.6585763096809387 0.05 0.49065643548965454 0.6386497020721436
8 0.5219189524650574 0.05 0.3081565499305725 0.6196826696395874
9 0.42930683493614197 0.05 0.20849749445915222 0.6013152003288269
10 0.3648165762424469 0.05 0.1505616456270218 0.586775541305542
11 0.3171403110027313 0.05 0.11378057301044464 0.5761736035346985
12 0.2793671786785126 0.05 0.08829092234373093 0.5697723627090454
13 0.25029411911964417 0.05 0.07087068259716034 0.5655995011329651
14 0.22704903781414032 0.05 0.05831826478242874 0.5618741512298584
15 0.2076330929994583 0.05 0.048770640045404434 0.5587367415428162
16 0.19185802340507507 0.05 0.04164138808846474 0.5564792156219482
17 0.17894145846366882 0.05 0.036223236471414566 0.5549629926681519
18 0.1681409478187561 0.05 0.03198248893022537 0.5540586709976196
19 0.15889312326908112 0.05 0.02856113389134407 0.55356764793396
20 0.1508350968360901 0.05 0.02573772519826889 0.5534016489982605
21 0.14371326565742493 0.05 0.023364633321762085 0.5534486174583435
22 0.13733986020088196 0.05 0.021338235586881638 0.55363929271698
23 0.13161058723926544 0.05 0.019595079123973846 0.553912878036499
24 0.12640704214572906 0.05 0.018076226115226746 0.5542436838150024
25 0.1216500848531723 0.05 0.01674133539199829 0.5545754432678223
26 0.1172780990600586 0.05 0.015559623949229717 0.5549141764640808
27 0.11324535310268402 0.05 0.014507951214909554 0.5552715063095093
28 0.10949311405420303 0.05 0.013562471605837345 0.5556163191795349
29 0.10600487887859344 0.05 0.012712092138826847 0.5559408068656921
30 0.10272670537233353 0.05 0.011938011273741722 0.5562471151351929
31 0.09965083748102188 0.05 0.011233811266720295 0.5565584897994995
32 0.09674863517284393 0.05 0.010588999837636948 0.5568292737007141
33 0.09400561451911926 0.05 0.009997071698307991 0.5571137070655823
34 0.09139358997344971 0.05 0.009449237957596779 0.557382345199585
35 0.08891378343105316 0.05 0.008943416178226471 0.5576248168945312
36 0.08654611557722092 0.05 0.008473454043269157 0.5578784346580505
37 0.08429370820522308 0.05 0.008038139902055264 0.5581158399581909
38 0.08214137703180313 0.05 0.007632894441485405 0.5583449006080627
39 0.08007300645112991 0.05 0.007253331132233143 0.5585759878158569
40 0.07809191197156906 0.05 0.006898860912770033 0.5587829351425171
41 0.0761905312538147 0.05 0.006567003205418587 0.5590120553970337
42 0.07436510175466537 0.05 0.006256098859012127 0.5592090487480164
43 0.07261095196008682 0.05 0.005964438430964947 0.5594203472137451
44 0.07091723382472992 0.05 0.005689430981874466 0.5596078634262085
45 0.0692821741104126 0.05 0.005430105607956648 0.5597831606864929
46 0.06771331280469894 0.05 0.005186966620385647 0.5599721670150757
47 0.06619767844676971 0.05 0.0049573639407753944 0.5601300597190857
48 0.06473839282989502 0.05 0.004741210024803877 0.5603010058403015
49 0.0633246973156929 0.05 0.0045364024117589 0.5604469776153564
50 0.061958830803632736 0.05 0.004342818632721901 0.5606002807617188
51 0.06063954532146454 0.05 0.004159844480454922 0.5607289671897888
52 0.059363432228565216 0.05 0.003986605443060398 0.5608608722686768
53 0.05813143774867058 0.05 0.0038228509947657585 0.5609745979309082
54 0.05693180114030838 0.05 0.003666697768494487 0.561095118522644
55 0.05578048899769783 0.05 0.00351989665068686 0.5611984133720398
56 0.05465475097298622 0.05 0.0033792562317103148 0.561306357383728
57 0.053566522896289825 0.05 0.0032460270449519157 0.5613948106765747
58 0.052510932087898254 0.05 0.003119354136288166 0.5614990592002869
59 0.05148835852742195 0.05 0.0029990477487444878 0.5615478754043579
60 0.050493862479925156 0.05 0.0028843132313340902 0.5616371631622314
61 0.04952220246195793 0.05 0.002774375258013606 0.5617141723632812
62 0.04858432337641716 0.05 0.002670284826308489 0.5617966651916504
63 0.0476703904569149 0.05 0.00257076695561409 0.5618367195129395
64 0.04678542912006378 0.05 0.0024762044195085764 0.5619018077850342
65 0.04591323062777519 0.05 0.002384739927947521 0.5619672536849976
66 0.045074477791786194 0.05 0.002298405859619379 0.5620102882385254
67 0.044251296669244766 0.05 0.0022152219898998737 0.562059760093689
68 0.043454837054014206 0.05 0.0021361983381211758 0.5620899796485901
69 0.042670853435993195 0.05 0.0020598135888576508 0.5621288418769836
70 0.04191313311457634 0.05 0.001987309893593192 0.5621833801269531
71 0.041173189878463745 0.05 0.001917760237120092 0.5622344017028809
72 0.04044708237051964 0.05 0.0018507156055420637 0.5622459650039673
73 0.03974021598696709 0.05 0.0017865934642031789 0.5622848868370056
74 0.03905406594276428 0.05 0.0017254318809136748 0.5623077154159546
75 0.038382191210985184 0.05 0.001666574738919735 0.5623520612716675
76 0.03772158920764923 0.05 0.0016097011975944042 0.5623655319213867
77 0.03708237037062645 0.05 0.0015556085854768753 0.5623916387557983
78 0.036457259207963943 0.05 0.001503603532910347 0.5624066591262817
79 0.035847730934619904 0.05 0.0014537462266162038 0.5624250173568726
80 0.035244379192590714 0.05 0.0014052221085876226 0.5624593496322632
81 0.034665126353502274 0.05 0.0013594110496342182 0.5624566674232483
82 0.034092385321855545 0.05 0.0013148616999387741 0.5624822378158569
83 0.033533625304698944 0.05 0.0012721149250864983 0.5625020861625671
84 0.032987553626298904 0.05 0.0012310210149735212 0.5624935626983643
85 0.03245369344949722 0.05 0.001191498595289886 0.5625205039978027
86 0.03192887827754021 0.05 0.001153274206444621 0.5625242590904236
87 0.03141605481505394 0.05 0.001116525148972869 0.5625320672988892
88 0.03091857209801674 0.05 0.0010814443230628967 0.5625256299972534
89 0.0304261427372694 0.05 0.0010472710710018873 0.5625432729721069
90 0.029946614056825638 0.05 0.0010145202977582812 0.5625638961791992
91 0.029477983713150024 0.05 0.0009830165654420853 0.5625483989715576
92 0.02901734970510006 0.05 0.0009525344939902425 0.5625667572021484
93 0.02856544964015484 0.05 0.0009230970754288137 0.5625512599945068
94 0.028123486787080765 0.05 0.0008947538444772363 0.5625602602958679
95 0.027691688388586044 0.05 0.0008674893178977072 0.5625599026679993
96 0.027267690747976303 0.05 0.0008411278249695897 0.562561571598053
97 0.026852311566472054 0.05 0.0008156966068781912 0.5625606775283813
98 0.02644483931362629 0.05 0.0007911287248134613 0.5625553727149963
99 0.026047304272651672 0.05 0.0007675220258533955 0.5625655651092529
100 0.02565392293035984 0.05 0.0007445139344781637 0.5625502467155457
101 0.025274286046624184 0.05 0.0007226417073979974 0.562544047832489
102 0.024899257346987724 0.05 0.0007013552240096033 0.5625565052032471
103 0.024529235437512398 0.05 0.0006806647288613021 0.5625389218330383
104 0.024166664108633995 0.05 0.0006606914103031158 0.5625535249710083
105 0.02381710894405842 0.05 0.000641716702375561 0.5625336170196533
106 0.02346622198820114 0.05 0.0006229477585293353 0.5625189542770386
107 0.02312539704144001 0.05 0.0006049835938028991 0.5625225305557251
108 0.02279369905591011 0.05 0.0005877530784346163 0.5625107288360596
109 0.02246270328760147 0.05 0.0005708070239052176 0.562515914440155
110 0.0221441388130188 0.05 0.0005547315231524408 0.5624812841415405
111 0.02182445116341114 0.05 0.000538830179721117 0.5625062584877014
112 0.021513981744647026 0.05 0.0005236087599769235 0.5624817609786987
113 0.02120952121913433 0.05 0.0005088936304673553 0.5624854564666748
114 0.020911026746034622 0.05 0.0004946704721078277 0.562470555305481
115 0.020617645233869553 0.05 0.0004808873636648059 0.5624628067016602
116 0.02032889425754547 0.05 0.00046751199988648295 0.5624600052833557
117 0.020047150552272797 0.05 0.0004546430427581072 0.5624396204948425
118 0.019770391285419464 0.05 0.0004421766789164394 0.5624390840530396
119 0.019498439505696297 0.05 0.00043009553337469697 0.5624164342880249
120 0.019231120124459267 0.05 0.00041838339529931545 0.5624129772186279
121 0.018967412412166595 0.05 0.0004069879068993032 0.5623898506164551
122 0.01870756223797798 0.05 0.0003959129098802805 0.5623985528945923
123 0.018452424556016922 0.05 0.0003851874207612127 0.5623880624771118
124 0.018203213810920715 0.05 0.000374853378161788 0.5623773336410522
125 0.01795891858637333 0.05 0.0003648594720289111 0.5623679161071777
126 0.01771940290927887 0.05 0.00035519219818525016 0.5623352527618408
127 0.017482344061136246 0.05 0.0003457519051153213 0.562349796295166
128 0.01725233532488346 0.05 0.00033671397250145674 0.5623266696929932
129 0.017024265602231026 0.05 0.0003278703079558909 0.562332272529602
130 0.01679687201976776 0.05 0.0003191700088791549 0.5623031854629517
131 0.016579829156398773 0.05 0.00031097489409148693 0.5622938275337219
132 0.016359470784664154 0.05 0.0003027637430932373 0.5622737407684326
133 0.016148580238223076 0.05 0.0002950081543531269 0.5622787475585938
134 0.015937572345137596 0.05 0.00028734898660331964 0.5622527599334717
135 0.01573214679956436 0.05 0.0002799892099574208 0.5622533559799194
136 0.015528691932559013 0.05 0.0002727941027842462 0.5622369050979614
137 0.01532821636646986 0.05 0.0002657960285432637 0.5622181296348572
138 0.015133715234696865 0.05 0.0002590934163890779 0.5622060298919678
139 0.014941536821424961 0.05 0.00025255492073483765 0.5621985197067261
140 0.014751153998076916 0.05 0.0002461598487570882 0.5621824264526367
141 0.014564151875674725 0.05 0.00023995825904421508 0.562177300453186
142 0.014382527209818363 0.05 0.00023401067301165313 0.5621644258499146
143 0.01419981848448515 0.05 0.00022810293012298644 0.5621441602706909
144 0.014020723290741444 0.05 0.00022238533711060882 0.562134861946106
145 0.013845923356711864 0.05 0.00021687481785193086 0.5621310472488403
146 0.013674629852175713 0.05 0.00021154190471861511 0.5621162056922913
147 0.013503902591764927 0.05 0.00020629269420169294 0.5621047616004944
148 0.013338906690478325 0.05 0.00020128236792515963 0.5620911717414856
149 0.013174790889024734 0.05 0.00019635987700894475 0.5620701313018799
150 0.013014880008995533 0.05 0.00019162209355272353 0.5620678663253784
151 0.01285630464553833 0.05 0.00018698102212511003 0.5620468854904175
152 0.012698033824563026 0.05 0.00018240560893900692 0.5620385408401489
153 0.01254646759480238 0.05 0.0001780771417543292 0.5620303153991699
154 0.012396370060741901 0.05 0.0001738418359309435 0.5620121955871582
155 0.012246322818100452 0.05 0.00016965893155429512 0.5620124340057373
156 0.012100662104785442 0.05 0.0001656469830777496 0.5619845390319824
157 0.011958272196352482 0.05 0.0001617715461179614 0.5619796514511108
158 0.011810577474534512 0.05 0.00015780019748490304 0.5619683265686035
159 0.011676481924951077 0.05 0.000154237262904644 0.5619512796401978
160 0.011535531841218472 0.05 0.0001505360269220546 0.5619478225708008
161 0.011402303352952003 0.05 0.00014707891386933625 0.5619382262229919
162 0.011264896020293236 0.05 0.00014355544408317655 0.5619293451309204
163 0.01113419234752655 0.05 0.00014024348638486117 0.561913013458252
164 0.011004763655364513 0.05 0.00013700194540433586 0.5618879795074463
165 0.01087645348161459 0.05 0.00013382581528276205 0.561892032623291
166 0.010752351023256779 0.05 0.00013078928168397397 0.5618704557418823
167 0.010627693496644497 0.05 0.00012777422671206295 0.5618650913238525
168 0.010505126789212227 0.05 0.000124844053061679 0.561856746673584
169 0.010384989902377129 0.05 0.00012200493802083656 0.5618410706520081
170 0.010269902646541595 0.05 0.00011931578046642244 0.5618250370025635
171 0.010149235837161541 0.05 0.00011652843386400491 0.5618106126785278
172 0.010034500621259212 0.05 0.00011390868166927248 0.5618103742599487
173 0.009919889271259308 0.05 0.00011132146755699068 0.561794638633728
174 0.009806727059185505 0.05 0.0001087961281882599 0.5617814064025879
175 0.009697787463665009 0.05 0.00010639239917509258 0.5617676973342896
176 0.009589659050107002 0.05 0.00010403311171103269 0.5617653131484985
177 0.009487268514931202 0.05 0.00010182341793552041 0.5617444515228271
178 0.009379754774272442 0.05 9.952869731932878e-05 0.5617324709892273
179 0.009275815449655056 0.05 9.733509068610147e-05 0.5617258548736572
180 0.009171008132398129 0.05 9.514794510323554e-05 0.5617282390594482
181 0.009073606692254543 0.05 9.313762711826712e-05 0.5617102980613708
182 0.008971982635557652 0.05 9.106302604777738e-05 0.56169593334198
183 0.008875347673892975 0.05 8.911196346161887e-05 0.5616745352745056
184 0.008778564631938934 0.05 8.717907621758059e-05 0.561686098575592
185 0.008685288950800896 0.05 8.533631626050919e-05 0.5616663694381714
186 0.00858880765736103 0.05 8.345091191586107e-05 0.5616579651832581
187 0.008498569019138813 0.05 8.170654473360628e-05 0.5616493225097656
188 0.008403853513300419 0.05 7.989548612385988e-05 0.5616253018379211
189 0.008315056562423706 0.05 7.821600593160838e-05 0.5616263151168823
190 0.008224335499107838 0.05 7.651859050383791e-05 0.5616166591644287
191 0.00813971646130085 0.05 7.495209865737706e-05 0.5616114139556885
192 0.00804966315627098 0.05 7.330281368922442e-05 0.5615947246551514
193 0.007966240867972374 0.05 7.179135718615726e-05 0.5615832805633545
194 0.007880821824073792 0.05 7.026001549093053e-05 0.5615692138671875
195 0.007795772980898619 0.05 6.875174585729837e-05 0.5615667104721069
196 0.007714581675827503 0.05 6.732712063239887e-05 0.5615655183792114
197 0.007635794579982758 0.05 6.595895683858544e-05 0.5615410208702087
198 0.00755271827802062 0.05 6.453151581808925e-05 0.5615296363830566
199 0.007477461826056242 0.05 6.325191498035565e-05 0.5615266561508179
tuning, 0, 0.005602130200713873
tuning, 1, 0.0038453559391200542
tuning, 2, 0.0033170352689921856
tuning, 3, 0.0027751480229198933
tuning, 4, 0.0021803495474159718
tuning, 5, 0.0017137383110821247
tuning, 6, 0.0014885484706610441
tuning, 7, 0.0014297498855739832
tuning, 8, 0.0013743320014327765
tuning, 9, 0.0012626157840713859

 10%|███████████████████████████████████▊                                                                                                                                                                                                                                                                                                                                  | 1/10 [00:30<04:32, 30.31s/it]
0, 0.1123598963022232
1, 0.1123598963022232
2, 0.10478764772415161
3, 0.09046947211027145
4, 0.07124532759189606
5, 0.05020034313201904
6, 0.03146933764219284
7, 0.020359057933092117
8, 0.014924751594662666
9, 0.012938628904521465
10, 0.012658241204917431
11, 0.01299421489238739
12, 0.013388562016189098
13, 0.013614967465400696
14, 0.013617369346320629
15, 0.013421982526779175
16, 0.013080420903861523
17, 0.012647292576730251
18, 0.012169732712209225
19, 0.011685052886605263
20, 0.011219645850360394
21, 0.010791021399199963
22, 0.010410645045340061
23, 0.010085180401802063
24, 0.009817473590373993
25, 0.009607716463506222
26, 0.009452501311898232
27, 0.009347062557935715
28, 0.009284913539886475
29, 0.009255610406398773
0 2.8622851371765137 0.05 7.602164268493652 0.8279416561126709
1 2.696911573410034 0.05 6.74908447265625 0.7908773422241211
2 2.524665117263794 0.05 5.9145121574401855 0.7545983195304871
3 2.3318073749542236 0.05 5.045413017272949 0.7219653129577637
4 2.0922884941101074 0.05 4.062136650085449 0.701890230178833
5 1.7660642862319946 0.05 2.894172430038452 0.7059165239334106
6 1.3688414096832275 0.05 1.738671898841858 0.7374283075332642
7 1.0126482248306274 0.05 0.9515433311462402 0.7624918818473816
8 0.8032254576683044 0.05 0.5986684560775757 0.7596503496170044
9 0.6810406446456909 0.05 0.4303853511810303 0.7472825050354004
10 0.58172208070755 0.05 0.31400930881500244 0.7338393926620483
11 0.4949938654899597 0.05 0.2273584008216858 0.7218447923660278
12 0.42887866497039795 0.05 0.17067907750606537 0.7117311358451843
13 0.3791992962360382 0.05 0.13342782855033875 0.7035142183303833
14 0.3400808274745941 0.05 0.10731878131628036 0.6967060565948486
15 0.3084787130355835 0.05 0.08830021321773529 0.6908029913902283
16 0.2825196385383606 0.05 0.07406426966190338 0.6855953335762024
17 0.2608722448348999 0.05 0.0631491094827652 0.6809467673301697
18 0.24259263277053833 0.05 0.05460929870605469 0.6768568754196167
19 0.22692838311195374 0.05 0.0477847196161747 0.6732702255249023
20 0.2133142501115799 0.05 0.04222320020198822 0.6701679229736328
21 0.20133739709854126 0.05 0.03761493042111397 0.6674922108650208
22 0.19070231914520264 0.05 0.033746082335710526 0.6652296781539917
23 0.1811823546886444 0.05 0.030460931360721588 0.6632963418960571
24 0.17261992394924164 0.05 0.027649879455566406 0.6616852283477783
25 0.16486667096614838 0.05 0.025221863761544228 0.6603326201438904
26 0.15782830119132996 0.05 0.023114321753382683 0.6591782569885254
27 0.15140631794929504 0.05 0.021271564066410065 0.6581923961639404
28 0.1455158144235611 0.05 0.019648605957627296 0.6573755741119385
29 0.1400924175977707 0.05 0.01821129024028778 0.656696081161499
30 0.13509051501750946 0.05 0.01693405956029892 0.6560962200164795
31 0.13044473528862 0.05 0.01578935608267784 0.6556047797203064
32 0.1261235624551773 0.05 0.014760592952370644 0.6551879644393921
33 0.12210793048143387 0.05 0.013835635967552662 0.6548246741294861
34 0.11833357065916061 0.05 0.01299353502690792 0.6545262932777405
35 0.11479851603507996 0.05 0.012228801846504211 0.6542541980743408
36 0.11145806312561035 0.05 0.011527478694915771 0.6540186405181885
37 0.10832411050796509 0.05 0.010888339020311832 0.6538184881210327
38 0.10535942018032074 0.05 0.010300496593117714 0.6536526679992676
39 0.10253273695707321 0.05 0.009755206294357777 0.6534844636917114
40 0.09986647218465805 0.05 0.0092544537037611 0.6533489227294922
41 0.0973312184214592 0.05 0.008790543302893639 0.6532212495803833
42 0.09490354359149933 0.05 0.008357496932148933 0.6531070470809937
43 0.0925973653793335 0.05 0.007956254296004772 0.6529967784881592
44 0.09039042145013809 0.05 0.007581518962979317 0.6528925895690918
45 0.08827521651983261 0.05 0.007230844348669052 0.6528066396713257
46 0.0862509086728096 0.05 0.0069030155427753925 0.6527072191238403
47 0.0843176394701004 0.05 0.0065970271825790405 0.6526299715042114
48 0.08244791626930237 0.05 0.006307695992290974 0.6525324583053589
49 0.08065430074930191 0.05 0.006036239676177502 0.6524502038955688
50 0.07892178744077682 0.05 0.005779698491096497 0.65235435962677
51 0.07726487517356873 0.05 0.005539565347135067 0.6522977948188782
52 0.07565337419509888 0.05 0.005310898181051016 0.6522111892700195
