
  0%|                                                                                                                                                                                                                                                                                            | 0/10 [00:00<?, ?it/s]
0, 0.1364392638206482
1, 0.1364392638206482
2, 0.12979255616664886
3, 0.11694803833961487
4, 0.09893621504306793
5, 0.0775601789355278
6, 0.05549611896276474
7, 0.03876937925815582
8, 0.027033021673560143
9, 0.01946883648633957
10, 0.015014035627245903
11, 0.012621693313121796
12, 0.011441795155405998
13, 0.010876871645450592
14, 0.01055268943309784
15, 0.010260159149765968
16, 0.009895162656903267
17, 0.009426118806004524
18, 0.008862982504069805
19, 0.008233767002820969
20, 0.007573052309453487
21, 0.006914557423442602
22, 0.006288902834057808
23, 0.005723745562136173
24, 0.005233259405940771
25, 0.0048216888681054115
26, 0.004487506113946438
27, 0.0042211562395095825
28, 0.004010714590549469
29, 0.003841080702841282
30, 0.00369666563346982
31, 0.0035651586949825287
32, 0.003435286460444331
33, 0.00330043095164001
34, 0.00315685523673892
35, 0.0030039972625672817
36, 0.002843401860445738
37, 0.0026781209744513035
38, 0.0025122277438640594
39, 0.0023500043898820877
40, 0.0021952351089566946
41, 0.0020511760376393795
42, 0.0019198907539248466
43, 0.001802344573661685
44, 0.0016985114198178053
45, 0.001607429003342986
46, 0.0015276222256943583
47, 0.0014571131905540824
48, 0.0013937525218352675
49, 0.0013357724528759718
50, 0.0012815621448680758
51, 0.001230187132023275
52, 0.0011810176074504852
53, 0.0011338621843606234
54, 0.0010887915268540382
55, 0.001045971643179655
56, 0.001005672151222825
57, 0.0009681518422439694
58, 0.0009333138586953282
59, 0.0009010647190734744
60, 0.0008710910333320498
61, 0.0008431408787146211
62, 0.0008168743806891143
63, 0.0007919674972072244
64, 0.0007682130672037601
65, 0.0007454358856193721
66, 0.0007234765216708183
67, 0.000702394638210535
68, 0.0006822696304880083
69, 0.0006631677388213575
70, 0.0006451873341575265
71, 0.0006283468101173639
72, 0.0006126525113359094
73, 0.0005980528658255935
74, 0.0005844896659255028
75, 0.000571858836337924
76, 0.0005600285949185491
77, 0.0005488656461238861
78, 0.0005382996750995517
79, 0.0005282347556203604
80, 0.000518632703460753
81, 0.0005094275111332536
82, 0.0005006059072911739
83, 0.0004921587533317506
84, 0.00048410118324682117
85, 0.000476404296932742
86, 0.0004690457717515528
87, 0.0004620068648364395
88, 0.0004552845493890345
89, 0.0004488515551201999
90, 0.00044268378405831754
91, 0.00043675152119249105
92, 0.0004310386430006474
93, 0.00042555652908049524
94, 0.00042025381117127836
95, 0.00041514303302392364
96, 0.0004101893282495439
97, 0.0004053839948028326
98, 0.00040074001299217343
99, 0.00039620912866666913
100, 0.0003918329603038728
101, 0.0003875717520713806
102, 0.00038342177867889404
103, 0.0003794067888520658
104, 0.0003755119105335325
105, 0.00037173955934122205
106, 0.0003680842346511781
107, 0.00036453502252697945
108, 0.0003610775456763804
109, 0.00035771465627476573
110, 0.0003544095379766077
111, 0.0003511969407554716
112, 0.0003480500017758459
113, 0.0003449817595537752
114, 0.00034197731292806566
115, 0.00033904402516782284
116, 0.0003361761337146163
117, 0.0003333797794766724
118, 0.0003306356957182288
119, 0.0003279685042798519
120, 0.00032534601632505655
121, 0.000322790234349668
122, 0.00032027423731051385
123, 0.0003178214537911117
124, 0.0003154028963763267
125, 0.0003130341356154531
126, 0.0003107154043391347
127, 0.0003084350028075278
128, 0.0003062101313844323
129, 0.00030400376999750733
130, 0.0003018582356162369
131, 0.00029974940116517246
132, 0.0002976800315082073
133, 0.0002956536482088268
134, 0.00029366122907958925
135, 0.00029170094057917595
136, 0.0002897899248637259
137, 0.00028789794305339456
138, 0.00028605081024579704
139, 0.00028422754257917404
140, 0.0002824335533659905
141, 0.0002806785050779581
142, 0.0002789541322272271
143, 0.00027725473046302795
144, 0.00027559889713302255
145, 0.0002739541232585907
146, 0.0002723329816944897
147, 0.0002707631210796535
148, 0.00026919570518657565
149, 0.00026767028612084687
150, 0.0002661582548171282
151, 0.0002646780340000987
152, 0.0002632181567605585
153, 0.00026178883854299784
154, 0.00026038484065793455
155, 0.00025899766478687525
156, 0.00025764136807993054
157, 0.00025630180607549846
158, 0.00025498459581285715
159, 0.0002536808606237173
160, 0.00025240646209567785
161, 0.00025114789605140686
162, 0.00024991255486384034
163, 0.00024868501350283623
164, 0.0002474673092365265
165, 0.00024629145627841353
166, 0.00024511615629307926
167, 0.00024395095533691347
168, 0.00024281127844005823
169, 0.00024167615629266948
170, 0.0002405627747066319
171, 0.00023946432338561863
172, 0.00023838129709474742
173, 0.00023730895190965384
174, 0.000236256280913949
175, 0.00023520769900642335
176, 0.0002341730723856017
177, 0.00023314828285947442
178, 0.00023214145039673895
179, 0.0002311543794348836
180, 0.0002301605127286166
181, 0.00022919767070561647
182, 0.00022822257596999407
183, 0.0002272676647407934
184, 0.00022632784384768456
185, 0.00022538639314007014
186, 0.00022445856302510947
187, 0.00022353490930981934
188, 0.0002226193610113114
189, 0.00022172750323079526
190, 0.00022083288058638573
191, 0.00021996948635205626
192, 0.0002191116800531745
193, 0.00021826752345077693
194, 0.0002174304099753499
195, 0.00021661601203959435
196, 0.00021580552856903523
197, 0.00021501476294361055
198, 0.00021421207929961383
199, 0.00021343717526178807
200, 0.00021266497788019478
201, 0.0002119085256708786
202, 0.00021116281277500093
203, 0.00021042765001766384
204, 0.00020970396872144192
205, 0.00020898799994029105
206, 0.00020828771812375635
207, 0.00020760446204803884
208, 0.000206926473765634
209, 0.00020626376499421895
210, 0.00020560156553983688
211, 0.0002049546892521903
212, 0.00020431290613487363
213, 0.00020368315745145082
214, 0.00020306193619035184
215, 0.00020245344785507768
216, 0.0002018501254497096
217, 0.00020125483570154756
218, 0.00020066529395990074
219, 0.00020009389845654368
220, 0.00019952694128733128
221, 0.00019896996673196554
222, 0.0001984144328162074
223, 0.00019788007193710655
224, 0.00019732923828996718
225, 0.000196807028260082
226, 0.00019628465815912932
227, 0.0001957788335857913
228, 0.00019527638505678624
229, 0.00019478290050756186
230, 0.00019428340601734817
231, 0.0001938086934387684
232, 0.00019332647207193077
233, 0.00019285446614958346
234, 0.00019239509128965437
235, 0.0001919335190905258
236, 0.00019148457795381546
237, 0.00019104278180748224
238, 0.00019061018247157335
239, 0.0001901808864204213
240, 0.00018975682905875146
241, 0.00018934151739813387
242, 0.00018893045489676297
243, 0.00018851959612220526
244, 0.00018811595509760082
245, 0.00018772852490656078
246, 0.00018734403420239687
247, 0.00018696303595788777
248, 0.00018658678163774312
249, 0.00018621725030243397
250, 0.00018585423822514713
251, 0.00018548108346294612
252, 0.00018513397662900388
253, 0.00018478160200174898
254, 0.00018443877343088388
255, 0.00018410324992146343
256, 0.00018376426305621862
257, 0.00018344177806284279
258, 0.0001831153640523553
259, 0.00018280319636687636
260, 0.0001824858773034066
261, 0.0001821784971980378
262, 0.00018187769455835223
263, 0.00018158523016609251
264, 0.00018128781812265515
265, 0.00018100166926160455
266, 0.00018072410603053868
267, 0.00018043810268864036
268, 0.00018015861860476434
269, 0.00017989028128795326
270, 0.00017961906269192696
271, 0.00017936000949703157
272, 0.00017910075257532299
273, 0.0001788451336324215
274, 0.00017859389481600374
275, 0.00017835100879892707
276, 0.00017810516874305904
277, 0.0001778682053554803
278, 0.00017762747302185744
279, 0.00017740202019922435
280, 0.0001771716633811593
281, 0.0001769492810126394
282, 0.0001767330541042611
283, 0.00017651710368227214
284, 0.0001763014297466725
285, 0.0001760942250257358
286, 0.0001758929865900427
287, 0.0001756873680278659
288, 0.0001754909026203677
289, 0.00017529520846437663
290, 0.0001751041563693434
291, 0.0001749144576024264
292, 0.00017473584739491343
293, 0.0001745586487231776
294, 0.00017437717178836465
295, 0.00017420020594727248
296, 0.0001740320003591478
297, 0.00017386238323524594
298, 0.00017369643319398165
299, 0.0001735416444716975
300, 0.00017337800818495452
301, 0.00017322576604783535
302, 0.00017307154485024512
303, 0.00017292267875745893
304, 0.00017277435108553618
305, 0.00017263134941458702
306, 0.00017249284428544343
307, 0.0001723538589430973
308, 0.0001722133602015674
309, 0.00017208242206834257
310, 0.00017195453983731568
311, 0.00017183224554173648
312, 0.00017171326908282936
313, 0.00017158947593998164
314, 0.00017146817117463797
315, 0.00017135165398940444
316, 0.00017124389705713838
317, 0.0001711266813799739
318, 0.00017102491983678192
319, 0.000170913030160591
320, 0.0001708125346340239
321, 0.00017070914327632636
322, 0.00017061375547200441
323, 0.00017052015755325556
324, 0.00017042478430084884
325, 0.00017033657059073448
326, 0.00017024637782014906
327, 0.00017015737830661237
328, 0.0001700727007118985
329, 0.000169994164025411
330, 0.0001699084386928007
331, 0.00016983191017061472
332, 0.00016975632752291858
333, 0.00016968084673862904
334, 0.00016961063374765217
335, 0.00016954049351625144
336, 0.0001694758393568918
337, 0.00016941316425800323
338, 0.00016934925224632025
339, 0.00016928247350733727
340, 0.00016922135546337813
341, 0.00016916132881306112
342, 0.00016910127305891365
343, 0.00016905026859603822
344, 0.00016899206093512475
345, 0.00016894562577363104
346, 0.00016890332335606217
347, 0.00016885387594811618
348, 0.00016880405019037426
349, 0.00016876053996384144
350, 0.0001687190670054406
351, 0.0001686801842879504
352, 0.00016864393546711653
353, 0.0001686013420112431
354, 0.00016856257570907474
355, 0.0001685300376266241
356, 0.00016849685925990343
357, 0.00016846368089318275
358, 0.00016843376215547323
359, 0.00016840663738548756
360, 0.0001683745940681547
361, 0.00016835020505823195
362, 0.00016832511755637825
363, 0.0001683054433669895
364, 0.0001682821603026241
365, 0.00016825796046759933
366, 0.00016823303303681314
367, 0.00016821513418108225
368, 0.00016819591110106558
369, 0.00016817596042528749
370, 0.00016816143761388958
371, 0.00016815104754641652
372, 0.00016813543334137648
373, 0.00016812449030112475
374, 0.00016810555825941265
375, 0.00016809918452054262
376, 0.0001680859422776848
377, 0.00016808146028779447
378, 0.00016806740313768387
379, 0.00016806303756311536
380, 0.00016805037739686668
381, 0.00016804625920485705
382, 0.0001680430577835068
383, 0.000168035359820351
384, 0.00016802921891212463
385, 0.00016802604659460485
386, 0.0001680243731243536
387, 0.00016802267055027187
388, 0.00016801836318336427
389, 0.00016801813035272062
390, 0.00016801354649942368
391, 0.00016801475430838764
392, 0.00016801018500700593
393, 0.00016800762386992574
394, 0.0001680130371823907
395, 0.00016801127640064806
396, 0.00016800747835077345
397, 0.00016801082529127598
398, 0.00016801035962998867
399, 0.00016800826415419579
0 2.56961989402771 0.05 7.8664116859436035
1 2.4107730388641357 0.05 6.923912048339844
2 2.2437005043029785 0.05 5.9974775314331055
3 2.0393574237823486 0.05 4.954793453216553
4 1.7656608819961548 0.05 3.7140986919403076
5 1.3639552593231201 0.05 2.2163541316986084
6 0.9260126352310181 0.05 1.021580696105957
7 0.6311375498771667 0.05 0.4745553731918335
8 0.514587938785553 0.05 0.31546998023986816
9 0.42810970544815063 0.05 0.21834790706634521
10 0.3637806177139282 0.05 0.15765874087810516
11 0.31630757451057434 0.05 0.11919499933719635
12 0.27880918979644775 0.05 0.0926089659333229
13 0.2486552894115448 0.05 0.07366043329238892
14 0.22457817196846008 0.05 0.060086097568273544
15 0.20540136098861694 0.05 0.05026266723871231
16 0.18995049595832825 0.05 0.042985279113054276
17 0.1772218942642212 0.05 0.03741740435361862
18 0.16647830605506897 0.05 0.033018261194229126
19 0.15725000202655792 0.05 0.029459144920110703
20 0.14917999505996704 0.05 0.026513073593378067
21 0.14201094210147858 0.05 0.024026060476899147
22 0.13557693362236023 0.05 0.021898306906223297
23 0.12975098192691803 0.05 0.02005673386156559
24 0.12444427609443665 0.05 0.018449679017066956
25 0.11956052482128143 0.05 0.01702999323606491
26 0.11507085710763931 0.05 0.015775006264448166
27 0.1109146922826767 0.05 0.01465605478733778
28 0.10704796016216278 0.05 0.013651980087161064
29 0.10344579070806503 0.05 0.01274865958839655
30 0.10007375478744507 0.05 0.011931067332625389
31 0.0969175472855568 0.05 0.011190350167453289
32 0.09394574165344238 0.05 0.010514607653021812
33 0.0911431685090065 0.05 0.009896624833345413
34 0.08848029375076294 0.05 0.009326785802841187
35 0.08597525954246521 0.05 0.008806146681308746
36 0.08358471840620041 0.05 0.008323244750499725
37 0.08131170272827148 0.05 0.007876711897552013
38 0.07913926243782043 0.05 0.007461444474756718
39 0.07706727087497711 0.05 0.0070758541114628315
40 0.07508465647697449 0.05 0.006716473493725061
41 0.07317905873060226 0.05 0.006379879545420408
42 0.07136359810829163 0.05 0.006067256443202496
43 0.06960607320070267 0.05 0.005772091448307037
44 0.06792449951171875 0.05 0.005496570374816656
45 0.06630883365869522 0.05 0.005238194949924946
46 0.06473536789417267 0.05 0.004992546048015356
47 0.06322385370731354 0.05 0.004762124270200729
48 0.06177913397550583 0.05 0.004546974785625935
49 0.060365814715623856 0.05 0.004341312684118748
50 0.05901196599006653 0.05 0.004148767329752445
51 0.05770016834139824 0.05 0.003966368269175291
52 0.05642956122756004 0.05 0.0037936060689389706
53 0.05519142746925354 0.05 0.0036289594136178493
54 0.05400894209742546 0.05 0.0034751235507428646
55 0.052850574254989624 0.05 0.003327655140310526
56 0.05172939971089363 0.05 0.0031879660673439503
57 0.05064241588115692 0.05 0.0030553974211215973
58 0.04959540441632271 0.05 0.00293036550283432
59 0.04856722429394722 0.05 0.0028101238422095776
60 0.04758353903889656 0.05 0.002697443589568138
61 0.04661839082837105 0.05 0.0025891270488500595
62 0.04567449539899826 0.05 0.0024853432551026344
63 0.044767916202545166 0.05 0.0023876610212028027
64 0.043890174478292465 0.05 0.0022949513513594866
65 0.043023452162742615 0.05 0.00220520724542439
66 0.04219086840748787 0.05 0.002120683202520013
67 0.04137248173356056 0.05 0.00203921040520072
68 0.04057842120528221 0.05 0.001961684552952647
69 0.03981893137097359 0.05 0.0018889396451413631
70 0.03906241059303284 0.05 0.0018178457394242287
71 0.03832954168319702 0.05 0.0017502744449302554
72 0.03761609271168709 0.05 0.0016857227310538292
73 0.03692831099033356 0.05 0.0016246421728283167
74 0.03624992445111275 0.05 0.0015655000461265445
75 0.03559131547808647 0.05 0.0015091309323906898
76 0.034944966435432434 0.05 0.0014548160834237933
77 0.034331031143665314 0.05 0.0014041471295058727
78 0.03370944783091545 0.05 0.0013537612976506352
79 0.03312709555029869 0.05 0.0013073915615677834
80 0.03253035619854927 0.05 0.0012607136741280556
81 0.03197171539068222 0.05 0.0012177854077890515
82 0.03141869977116585 0.05 0.0011760216439142823
83 0.030874358490109444 0.05 0.0011356245959177613
84 0.030347883701324463 0.05 0.0010972250020131469
85 0.029829027131199837 0.05 0.0010600273963063955
86 0.029325513169169426 0.05 0.0010245428420603275
87 0.028840703889727592 0.05 0.000990947475656867
88 0.028358232229948044 0.05 0.0009580699261277914
89 0.027889462187886238 0.05 0.0009266573470085859
90 0.02742968313395977 0.05 0.0008963558357208967
91 0.02697639726102352 0.05 0.0008669754024595022
92 0.026540271937847137 0.05 0.0008391693700104952
93 0.026114406064152718 0.05 0.0008124546729959548
94 0.025692319497466087 0.05 0.0007864035433158278
95 0.025286434218287468 0.05 0.000761752831749618
96 0.024883292615413666 0.05 0.00073765724664554
97 0.02448931150138378 0.05 0.000714483205229044
98 0.024101892486214638 0.05 0.0006920559098944068
99 0.02372615598142147 0.05 0.0006706465501338243
tuning, 0, 0.00020855791808571666
tuning, 1, 0.00020855791808571666
tuning, 2, 0.0002068894391413778
tuning, 3, 0.00020403896633069962
tuning, 4, 0.00020040367962792516
tuning, 5, 0.0001962832611752674
tuning, 6, 0.00019182893447577953
tuning, 7, 0.00018715494661591947
tuning, 8, 0.00018237382755614817
tuning, 9, 0.00017774121079128236
tuning, 10, 0.0001733554236125201
tuning, 11, 0.00016939511988312006
tuning, 12, 0.0001660318812355399
tuning, 13, 0.00016252782370429486
tuning, 14, 0.000159726245328784
tuning, 15, 0.00015673402231186628
tuning, 16, 0.00015409407205879688
tuning, 17, 0.00015137383888941258
tuning, 18, 0.00014884720440022647
tuning, 19, 0.00014680635649710894
tuning, 20, 0.00014455091150011867
tuning, 21, 0.00014242122415453196
tuning, 22, 0.0001403761125402525
tuning, 23, 0.0001383089111186564
tuning, 24, 0.0001364070049021393
tuning, 25, 0.000134470930788666
tuning, 26, 0.00013264879817143083
tuning, 27, 0.00013095370377413929
tuning, 28, 0.0001293020322918892
tuning, 29, 0.00012775271898135543
tuning, 30, 0.00012619374319911003
tuning, 31, 0.00012470412184484303
tuning, 32, 0.0001233328366652131
tuning, 33, 0.00012197202886454761
tuning, 34, 0.0001206100860144943
tuning, 35, 0.00011932467896258458
tuning, 36, 0.00011806635302491486
tuning, 37, 0.00011681022442644462
tuning, 38, 0.00011564348824322224
tuning, 39, 0.00011446462303865701
tuning, 40, 0.00011336027819197625
tuning, 41, 0.00011227185314055532
tuning, 42, 0.000111219851532951
tuning, 43, 0.00011028572771465406
tuning, 44, 0.0001092314487323165
tuning, 45, 0.00010832856060005724
tuning, 46, 0.00010742488666437566
tuning, 47, 0.00010652342461980879
tuning, 48, 0.00010585039854049683
tuning, 49, 0.00010489761916687712
tuning, 50, 0.0001041458745021373
tuning, 51, 0.0001033595108310692
tuning, 52, 0.00010263758304063231
tuning, 53, 0.0001019565825117752
tuning, 54, 0.00010128449503099546
tuning, 55, 0.00010060230852104723
tuning, 56, 9.999534813687205e-05
tuning, 57, 9.942236647475511e-05
tuning, 58, 9.88428364507854e-05
tuning, 59, 9.83081990852952e-05
tuning, 60, 9.779079118743539e-05
tuning, 61, 9.731206228025258e-05
tuning, 62, 9.683726239018142e-05
tuning, 63, 9.639338531997055e-05
tuning, 64, 9.596504241926596e-05
tuning, 65, 9.555870201438665e-05
tuning, 66, 9.514455450698733e-05
tuning, 67, 9.477906132815406e-05
tuning, 68, 9.444814349990338e-05
tuning, 69, 9.407920151716098e-05
tuning, 70, 9.378129470860586e-05
tuning, 71, 9.35178468353115e-05
tuning, 72, 9.32243638089858e-05
tuning, 73, 9.298189252149314e-05
tuning, 74, 9.2758156824857e-05
tuning, 75, 9.252651943825185e-05
tuning, 76, 9.233019954990596e-05
tuning, 77, 9.21360551728867e-05
tuning, 78, 9.196981409331784e-05
tuning, 79, 9.180834604194388e-05
tuning, 80, 9.164233779301867e-05
tuning, 81, 9.150656114798039e-05
tuning, 82, 9.137793676927686e-05
tuning, 83, 9.12485847948119e-05
tuning, 84, 9.11633251234889e-05
tuning, 85, 9.108302765525877e-05
tuning, 86, 9.0992652985733e-05
tuning, 87, 9.092100663110614e-05
tuning, 88, 9.084802877623588e-05
tuning, 89, 9.080293239094317e-05
tuning, 90, 9.075101115740836e-05
tuning, 91, 9.073247201740742e-05
tuning, 92, 9.069739462574944e-05
tuning, 93, 9.068069630302489e-05
tuning, 94, 9.066076017916203e-05

 10%|███████████████████████████▌                                                                                                                                                                                                                                                       | 1/10 [02:56<26:24, 176.02s/it]
tuning, 96, 9.064098412636667e-05
tuning, 97, 9.06223722267896e-05
tuning, 98, 9.064139885595068e-05
tuning, 99, 9.063386823982e-05
inversion time : 167.0912115573883
0, 0.1123598963022232
1, 0.1123598963022232
2, 0.10478784888982773
3, 0.09046924114227295
4, 0.07124529778957367
5, 0.050200216472148895
6, 0.03146940469741821
7, 0.020328223705291748
8, 0.014864534139633179
