
  0%|                                                                                                                                                                                                                                                                                            | 0/10 [00:00<?, ?it/s]
0, 0.1364392638206482
1, 0.1364392638206482
2, 0.12979212403297424
3, 0.11694830656051636
4, 0.09893620014190674
5, 0.07756023108959198
6, 0.0554962158203125
7, 0.03876912593841553
8, 0.027032284066081047
9, 0.019467465579509735
10, 0.015012617222964764
11, 0.012620596215128899
12, 0.011441433802247047
13, 0.010877465829253197
14, 0.010554475709795952
15, 0.01026301272213459
16, 0.00989874079823494
17, 0.009429841302335262
18, 0.008866678923368454
19, 0.008236813358962536
20, 0.007576167583465576
21, 0.006916664075106382
22, 0.00629072543233633
23, 0.005725809372961521
24, 0.005235438700765371
25, 0.0048252614215016365
26, 0.0044916835613548756
27, 0.004227231256663799
28, 0.004018454812467098
29, 0.0038502521347254515
30, 0.003707305993884802
31, 0.0035762160550802946
32, 0.003446664661169052
33, 0.00331137515604496
34, 0.0031668697483837605
35, 0.003012597095221281
36, 0.002850295975804329
37, 0.002683313563466072
38, 0.002515742089599371
39, 0.002352002542465925
40, 0.0021961568854749203
41, 0.002051376271992922
42, 0.0019196951761841774
43, 0.0018021578434854746
44, 0.0016985908150672913
45, 0.0016079843044281006
46, 0.0015286877751350403
47, 0.001458500511944294
48, 0.001395495026372373
49, 0.001337528578005731
50, 0.0012830980122089386
51, 0.001231288886629045
52, 0.0011815701145678759
53, 0.0011339024640619755
54, 0.0010882708011195064
55, 0.0010450002737343311
56, 0.0010043969377875328
57, 0.0009665805846452713
58, 0.0009315740317106247
59, 0.0008991508511826396
60, 0.0008690135437063873
61, 0.0008408073335886002
62, 0.0008141690632328391
63, 0.0007888586260378361
64, 0.0007646099547855556
65, 0.0007412140257656574
66, 0.0007187052397057414
67, 0.0006970894755795598
68, 0.000676545430906117
69, 0.0006571173435077071
70, 0.0006389126647263765
71, 0.000621941639110446
72, 0.0006062044994905591
73, 0.0005916479858569801
74, 0.0005780849023722112
75, 0.0005654302658513188
76, 0.0005535522941499949
77, 0.0005423079710453749
78, 0.0005316204042173922
79, 0.0005214234115555882
80, 0.0005116324173286557
81, 0.0005022393306717277
82, 0.0004932499723508954
83, 0.00048466090811416507
84, 0.00047646937309764326
85, 0.0004686415195465088
86, 0.0004611790645867586
87, 0.0004540426889434457
88, 0.0004472042783163488
89, 0.0004406586231198162
90, 0.0004343672189861536
91, 0.0004283010202925652
92, 0.00042249035323038697
93, 0.0004168480518274009
94, 0.0004114159964956343
95, 0.00040613149758428335
96, 0.0004010012489743531
97, 0.0003960099711548537
98, 0.0003911752428393811
99, 0.0003864697355311364
100, 0.0003819229023065418
101, 0.0003775014774873853
102, 0.00037322426214814186
103, 0.00036907740286551416
104, 0.0003650672151707113
105, 0.0003611475112847984
106, 0.0003573466092348099
107, 0.00035364506766200066
108, 0.00035000103525817394
109, 0.0003464392793830484
110, 0.0003429687931202352
111, 0.0003395680687390268
112, 0.00033624167554080486
113, 0.0003329870232846588
114, 0.00032981994445435703
115, 0.00032672000816091895
116, 0.0003236779884900898
117, 0.00032071175519376993
118, 0.0003177979669999331
119, 0.0003149419790133834
120, 0.0003121447516605258
121, 0.00030939315911382437
122, 0.00030668318504467607
123, 0.00030403208802454174
124, 0.00030142866307869554
125, 0.00029888449353165925
126, 0.00029639096464961767
127, 0.00029393393197096884
128, 0.00029153376817703247
129, 0.00028917143936268985
130, 0.0002868408046197146
131, 0.0002845519338734448
132, 0.00028230680618435144
133, 0.0002800906077027321
134, 0.0002779331407509744
135, 0.0002757964830379933
136, 0.00027369437157176435
137, 0.00027163332561030984
138, 0.00026961060939356685
139, 0.0002676233125384897
140, 0.0002656556316651404
141, 0.00026373539003543556
142, 0.00026184626040048897
143, 0.0002599797153379768
144, 0.0002581377630122006
145, 0.00025633626501075923
146, 0.0002545585739426315
147, 0.0002528164768591523
148, 0.0002510939375497401
149, 0.0002493948850315064
150, 0.000247718533501029
151, 0.0002460639807395637
152, 0.0002444384153932333
153, 0.00024282746016979218
154, 0.00024123303592205048
155, 0.00023966317530721426
156, 0.0002381023223279044
157, 0.00023656536359339952
158, 0.00023503413831349462
159, 0.00023351963318418711
160, 0.00023202654847409576
161, 0.0002305298112332821
162, 0.00022906539379619062
163, 0.00022758645354770124
164, 0.00022612599423155189
165, 0.0002246660296805203
166, 0.00022322789300233126
167, 0.00022179316147230566
168, 0.00022037280723452568
169, 0.000218973946175538
170, 0.00021759685478173196
171, 0.000216240223380737
172, 0.00021489083883352578
173, 0.00021355706849135458
174, 0.00021223194198682904
175, 0.00021091417875140905
176, 0.00020962096459697932
177, 0.0002083394501823932
178, 0.0002070812915917486
179, 0.0002058308309642598
180, 0.00020461608073674142
181, 0.00020340205810498446
182, 0.0002022176922764629
183, 0.00020104247960262
184, 0.00019988352141808718
185, 0.000198731358977966
186, 0.00019759812857955694
187, 0.00019648068700917065
188, 0.00019537401385605335
189, 0.00019428230007179081
190, 0.0001932084996951744
191, 0.00019214836356695741
192, 0.00019109086133539677
193, 0.00019006070215255022
194, 0.00018902670126408339
195, 0.00018801187979988754
196, 0.00018701294902712107
197, 0.00018602714408189058
198, 0.00018505069601815194
199, 0.00018409767653793097
200, 0.00018314237240701914
201, 0.000182208459591493
202, 0.00018128586816601455
203, 0.00018038012785837054
204, 0.00017947328160516918
205, 0.00017858154023997486
206, 0.00017770990962162614
207, 0.00017684523481875658
208, 0.0001759794249664992
209, 0.00017513299826532602
210, 0.00017429077706765383
211, 0.0001734638208290562
212, 0.00017264013877138495
213, 0.000171825842699036
214, 0.00017102113633882254
215, 0.000170229934155941
216, 0.00016944142407737672
217, 0.00016865425277501345
218, 0.00016788250650279224
219, 0.0001671128411544487
220, 0.00016635144129395485
221, 0.00016559995128773153
222, 0.00016485070227645338
223, 0.00016410373791586608
224, 0.00016336445696651936
225, 0.00016263712313957512
226, 0.00016191147733479738
227, 0.0001611988409422338
228, 0.00016048777615651488
229, 0.00015978280862327665
230, 0.00015907632769085467
231, 0.00015837737009860575
232, 0.00015768076991662383
233, 0.0001569877495057881
234, 0.0001563031692057848
235, 0.00015561841428279877
236, 0.00015493275714106858
237, 0.00015425743185915053
238, 0.00015357947268057615
239, 0.00015290624287445098
240, 0.0001522254169685766
241, 0.0001515486801508814
242, 0.00015086992061696947
243, 0.00015019389684312046
244, 0.0001495058968430385
245, 0.00014881194510962814
246, 0.00014811335131525993
247, 0.00014739655307494104
248, 0.00014668992662336677
249, 0.00014595678658224642
250, 0.00014524527068715543
251, 0.00014452298637479544
252, 0.00014380592620000243
253, 0.00014309940161183476
254, 0.00014240482414606959
255, 0.00014170786016620696
256, 0.0001410168915754184
257, 0.0001403334754286334
258, 0.00013965211110189557
259, 0.00013898391625843942
260, 0.0001383169728796929
261, 0.00013767169730272144
262, 0.00013703713193535805
263, 0.00013640368706546724
264, 0.00013578042853623629
265, 0.0001351598766632378
266, 0.000134551984956488
267, 0.00013395477435551584
268, 0.000133354144054465
269, 0.0001327602076344192
270, 0.000132180837681517
271, 0.00013160647358745337
272, 0.00013102202501613647
273, 0.00013046419189777225
274, 0.00012990995310246944
275, 0.00012935910490341485
276, 0.00012880923168268055
277, 0.00012826295278500766
278, 0.00012773001799359918
279, 0.00012718873040284961
280, 0.00012666445400100201
281, 0.0001261436118511483
282, 0.00012562329357024282
283, 0.00012510537635535002
284, 0.00012459616118576378
285, 0.00012407997564878315
286, 0.00012358149979263544
287, 0.0001230859779752791
288, 0.0001225851010531187
289, 0.0001220922713400796
290, 0.00012160165351815522
291, 0.00012112085823900998
292, 0.00012063988106092438
293, 0.00012015277752652764
294, 0.00011968844046350569
295, 0.00011921252007596195
296, 0.00011874888150487095
297, 0.00011827615526271984
298, 0.0001178113161586225
299, 0.00011735563020920381
300, 0.0001168954186141491
301, 0.00011643825564533472
302, 0.00011598831042647362
303, 0.00011554182128747925
304, 0.00011508901661727577
305, 0.0001146498107118532
306, 0.00011420874943723902
307, 0.00011376576003385708
308, 0.00011333982547512278
309, 0.00011289995745755732
310, 0.00011247182555962354
311, 0.00011204724432900548
312, 0.00011162083683302626
313, 0.00011119803821202368
314, 0.00011078138777520508
315, 0.00011036527575924993
316, 0.00010994570038747042
317, 0.00010953805031022057
318, 0.00010911819117609411
319, 0.0001087090204237029
320, 0.0001083052484318614
321, 0.00010789906809804961
322, 0.00010749740613391623
323, 0.00010709709022194147
324, 0.0001066932309186086
325, 0.00010629180906107649
326, 0.0001059008645825088
327, 0.00010550707520451397
328, 0.00010510550055187196
329, 0.0001047239638864994
330, 0.00010432406998006627
331, 0.00010393957927590236
332, 0.00010354673577239737
333, 0.00010315520921722054
334, 0.00010276815737597644
335, 0.00010238765389658511
336, 0.00010199373355135322
337, 0.00010160433885175735
338, 0.00010122402454726398
339, 0.00010083550296258181
340, 0.00010044958617072552
341, 0.0001000580596155487
342, 9.967175719793886e-05
343, 9.928145300364122e-05
344, 9.888636122923344e-05
345, 9.849565685726702e-05
346, 9.810364281293005e-05
347, 9.772100020200014e-05
348, 9.733339538797736e-05
349, 9.695427434053272e-05
350, 9.656720794737339e-05
351, 9.619085903977975e-05
352, 9.581151971360669e-05
353, 9.543887426843867e-05
354, 9.506747301202267e-05
355, 9.468825010117143e-05
356, 9.432004299014807e-05
357, 9.395401866640896e-05
358, 9.3588896561414e-05
359, 9.322076220996678e-05
360, 9.285011037718505e-05
361, 9.248404967365786e-05
362, 9.212279110215604e-05
363, 9.175774175673723e-05
364, 9.139675967162475e-05
365, 9.102970216190442e-05
366, 9.066765051102266e-05
367, 9.030111687025055e-05
368, 8.994273230200633e-05
369, 8.958225225796923e-05
370, 8.921773405745625e-05
371, 8.885597344487906e-05
372, 8.85005429154262e-05
373, 8.814121247269213e-05
374, 8.777562470640987e-05
375, 8.742140926187858e-05
376, 8.706498192623258e-05
377, 8.671125397086143e-05
378, 8.634710684418678e-05
379, 8.599186548963189e-05
380, 8.563403389416635e-05
381, 8.527793397661299e-05
382, 8.4921412053518e-05
383, 8.456145587842911e-05
384, 8.4205690654926e-05
385, 8.385084220208228e-05
386, 8.349629206350073e-05
387, 8.31348224892281e-05
388, 8.277766755782068e-05
389, 8.242529293056577e-05
390, 8.207120117731392e-05
391, 8.172247908078134e-05
392, 8.137284748954698e-05
393, 8.102238643914461e-05
394, 8.068272290984169e-05
395, 8.033427729969844e-05
396, 7.998201181180775e-05
397, 7.964171527419239e-05
398, 7.930007996037602e-05
399, 7.895732414908707e-05
400, 7.861766061978415e-05
401, 7.82758288551122e-05
402, 7.793853001203388e-05
403, 7.760091102682054e-05
404, 7.727518095634878e-05
405, 7.693628867855296e-05
406, 7.661079871468246e-05
407, 7.628167077200487e-05
408, 7.594745693495497e-05
409, 7.561319216620177e-05
410, 7.529794675065205e-05
411, 7.49695609556511e-05
412, 7.464049122063443e-05
413, 7.432080019498244e-05
414, 7.400156755466014e-05
415, 7.368175283772871e-05
416, 7.335819827858359e-05
417, 7.303946040337905e-05
418, 7.272242510225624e-05
419, 7.240442209877074e-05
420, 7.20882962923497e-05
421, 7.177608495112509e-05
422, 7.14577836333774e-05
423, 7.114450272638351e-05
424, 7.083569653332233e-05
425, 7.051558350212872e-05
426, 7.020169869065285e-05
427, 6.988737732172012e-05
428, 6.957747973501682e-05
429, 6.926884816493839e-05
430, 6.89527514623478e-05
431, 6.8645880674012e-05
432, 6.833318911958486e-05
433, 6.802147981943563e-05
434, 6.771599873900414e-05
435, 6.740515527781099e-05
436, 6.709949229843915e-05
437, 6.679535727016628e-05
438, 6.64886028971523e-05
439, 6.618698535021394e-05
440, 6.588084215763956e-05
441, 6.558810127899051e-05
442, 6.528495578095317e-05
443, 6.498460425063968e-05
444, 6.469160143751651e-05
445, 6.439781282097101e-05
446, 6.409600609913468e-05
447, 6.380260310834274e-05
448, 6.351025513140485e-05
449, 6.321810360532254e-05
450, 6.292584293987602e-05
451, 6.264194962568581e-05
452, 6.234861939447e-05
453, 6.205975660122931e-05
454, 6.177884642966092e-05
455, 6.149160617496818e-05
456, 6.120906618889421e-05
457, 6.091928662499413e-05
458, 6.0638478316832334e-05
459, 6.035718251951039e-05
460, 6.0074322391301394e-05
461, 5.9789726947201416e-05
462, 5.950737249804661e-05
463, 5.9229787439107895e-05
464, 5.894983041798696e-05
465, 5.867244180990383e-05
466, 5.839203004143201e-05
467, 5.811220034956932e-05
468, 5.783892629551701e-05
469, 5.755969323217869e-05
470, 5.7283723435830325e-05
471, 5.700142355635762e-05
472, 5.67293718631845e-05
473, 5.6457367463735864e-05
474, 5.6176300859078765e-05
475, 5.590662112808786e-05
476, 5.562626392929815e-05
477, 5.535008313017897e-05
478, 5.506991874426603e-05
479, 5.4801072110421956e-05
480, 5.4527812608284876e-05
481, 5.425643757916987e-05
482, 5.397751374403015e-05
483, 5.370880535338074e-05
484, 5.343819429981522e-05
485, 5.315941962180659e-05
486, 5.288403190206736e-05
487, 5.261778278509155e-05
488, 5.234617128735408e-05
489, 5.207931826589629e-05
490, 5.180990410735831e-05
491, 5.154276732355356e-05
492, 5.12760307174176e-05
493, 5.100220369058661e-05
494, 5.073143256595358e-05
495, 5.0468090194044635e-05
496, 5.020160460844636e-05
497, 4.9930538807529956e-05
498, 4.966846609022468e-05
499, 4.9404825404053554e-05
500, 4.9136142479255795e-05
501, 4.887691102339886e-05
502, 4.861821071244776e-05
503, 4.835714207729325e-05
504, 4.809553502127528e-05
505, 4.783856275025755e-05
506, 4.7580520913470536e-05
507, 4.7325913328677416e-05
508, 4.70655613753479e-05
509, 4.680482015828602e-05
510, 4.6538636524928734e-05
511, 4.6263998228823766e-05
512, 4.601357795763761e-05
513, 4.575153434416279e-05
514, 4.547870048554614e-05
515, 4.521480150287971e-05
516, 4.4967553549213335e-05
517, 4.470345447771251e-05
518, 4.444196747499518e-05
519, 4.418275784701109e-05
520, 4.392491973703727e-05
521, 4.366604480310343e-05
522, 4.340284431236796e-05
523, 4.315159094403498e-05
524, 4.2892595956800506e-05
525, 4.263112714397721e-05
526, 4.2373671021778136e-05
527, 4.211079067317769e-05
528, 4.184920544503257e-05
529, 4.1588958993088454e-05
530, 4.132697358727455e-05
531, 4.106740379938856e-05
532, 4.0810198697727174e-05
533, 4.055372846778482e-05
534, 4.029949559480883e-05
535, 4.0050799725577235e-05
536, 3.9806149288779125e-05
537, 3.956473301514052e-05
538, 3.932265826733783e-05
539, 3.9081915019778535e-05
540, 3.8851074350532144e-05
541, 3.861184086417779e-05
542, 3.839163400698453e-05
543, 3.8154797948664054e-05
544, 3.7932975828880444e-05
545, 3.771099727600813e-05
546, 3.7484613130800426e-05
547, 3.726705472217873e-05
548, 3.704237315105274e-05
549, 3.682625538203865e-05
550, 3.6613499105442315e-05
551, 3.639308124547824e-05
552, 3.6181263567414135e-05
553, 3.596934402594343e-05
554, 3.5753368138102815e-05
555, 3.553507849574089e-05
556, 3.532394111971371e-05
557, 3.5107277653878555e-05
558, 3.4900316677521914e-05
559, 3.468631985015236e-05
560, 3.44723230227828e-05
561, 3.425877002882771e-05
562, 3.404116432648152e-05
563, 3.383346484042704e-05
564, 3.3617754525039345e-05
565, 3.34069445671048e-05
566, 3.319283132441342e-05
567, 3.298242518212646e-05
568, 3.2775849831523374e-05
569, 3.25653309118934e-05
570, 3.235912663512863e-05
571, 3.215171454939991e-05
572, 3.1947212846716866e-05
573, 3.174072480760515e-05
574, 3.154193836962804e-05
575, 3.134081271127798e-05
576, 3.1142859370447695e-05
577, 3.09492097585462e-05
578, 3.075542190345004e-05
579, 3.056552304769866e-05
580, 3.0374116249731742e-05
581, 3.018093411810696e-05
582, 2.9992817871971056e-05
583, 2.9806600650772452e-05
584, 2.9623493901453912e-05
585, 2.9433267627609894e-05
586, 2.9252301828819327e-05
587, 2.9070488380966708e-05
588, 2.888987000915222e-05
589, 2.870816388167441e-05
590, 2.852929537766613e-05
591, 2.83489116554847e-05
592, 2.8172293241368607e-05
593, 2.799538560793735e-05
594, 2.782069714157842e-05
595, 2.764966120594181e-05
596, 2.7477410185383633e-05
597, 2.7304835384711623e-05
598, 2.7133768526255153e-05
599, 2.6962878109770827e-05
600, 2.6793873985297978e-05
601, 2.6622670702636242e-05
602, 2.6457226340426132e-05
603, 2.6291290851077065e-05
604, 2.6125922886421904e-05
605, 2.595772093627602e-05
606, 2.5796511181397364e-05
607, 2.5632933102315292e-05
608, 2.546941686887294e-05
609, 2.531066638766788e-05
610, 2.5150406145257875e-05
611, 2.4989916710183024e-05
612, 2.4829094400047325e-05
613, 2.4672355721122585e-05
614, 2.451309046591632e-05
615, 2.435742317175027e-05
616, 2.4200486222980544e-05
617, 2.4043552912189625e-05
618, 2.3889220756245777e-05
619, 2.373802271904424e-05
620, 2.3580538254464045e-05
621, 2.3428056010743603e-05
622, 2.3277998479898088e-05
623, 2.3127126041799784e-05
624, 2.2976404579821974e-05
625, 2.2827793145552278e-05
626, 2.26785250561079e-05
627, 2.2531930881086737e-05
628, 2.2383892428479157e-05
629, 2.2236159566091374e-05
630, 2.2089850972406566e-05
631, 2.194500484620221e-05
632, 2.1801934053655714e-05
633, 2.165867408621125e-05
634, 2.1513998945010826e-05
635, 2.1372048649936914e-05
636, 2.1230724087217823e-05
637, 2.1088146240799688e-05
638, 2.0950821635778993e-05
639, 2.0807758119190112e-05
640, 2.067137938865926e-05
641, 2.0531941117951646e-05
642, 2.0397099433466792e-05
643, 2.0255652998457663e-05
644, 2.012402910622768e-05
645, 1.9990427972516045e-05
646, 1.9854458514600992e-05
647, 1.9722805518540554e-05
648, 1.9583965695346706e-05
649, 1.9449948013061658e-05
650, 1.9319873899803497e-05
651, 1.9191877072444186e-05
652, 1.9058879843214527e-05
653, 1.8929535144707188e-05
654, 1.8799973986460827e-05
655, 1.8671638827072456e-05
656, 1.8541693862061948e-05
657, 1.8412338249618188e-05
658, 1.8284412362845615e-05
659, 1.8156828446080908e-05
660, 1.8029753846349195e-05
661, 1.7903475963976234e-05
662, 1.7776594177121297e-05
663, 1.76504508999642e-05
664, 1.7523565475130454e-05
665, 1.7401678633177653e-05
666, 1.7274325728067197e-05
667, 1.7150774510810152e-05
668, 1.7024831322487444e-05
669, 1.6905314623727463e-05
670, 1.6779549696366303e-05
671, 1.6654541468597017e-05
672, 1.6538460840820335e-05
673, 1.641464768908918e-05
674, 1.6294286979245953e-05
675, 1.617756970517803e-05
676, 1.605621764610987e-05
677, 1.5941966921673156e-05
678, 1.5825113223399967e-05
679, 1.5711550076957792e-05
680, 1.559716838528402e-05
681, 1.548283762531355e-05
682, 1.5370878827525303e-05
683, 1.5261346561601385e-05
684, 1.514965515525546e-05
685, 1.5042713130242191e-05
686, 1.4932249541743658e-05
687, 1.4829178326181136e-05
688, 1.4723043932463042e-05
689, 1.4619996363762766e-05
690, 1.4513985661324114e-05
691, 1.441417680325685e-05
692, 1.43084744195221e-05
693, 1.4211378584150225e-05
694, 1.411085577274207e-05
695, 1.4011718121764716e-05
696, 1.3914537703385577e-05
697, 1.381918991683051e-05
698, 1.3722280527872499e-05
699, 1.3625778592540883e-05
700, 1.3532509910874069e-05
701, 1.3439748727250844e-05
702, 1.3343720638658851e-05
703, 1.325459288636921e-05
704, 1.3160037269699387e-05
705, 1.3070853128738236e-05
706, 1.2979980056115892e-05
707, 1.289102146984078e-05
708, 1.2801013326679822e-05
709, 1.2714986041828524e-05
710, 1.263073045265628e-05
711, 1.2540224815893453e-05
712, 1.2457012417144142e-05
713, 1.237366086570546e-05
714, 1.2287884601391852e-05
715, 1.2204536687931977e-05
716, 1.2118913218728267e-05
717, 1.203829378937371e-05
718, 1.1958682989643421e-05
719, 1.1876789358211681e-05
720, 1.1793359590228647e-05
721, 1.1709926184266806e-05
722, 1.163638080470264e-05
723, 1.1557784091564827e-05
724, 1.1479280146886595e-05
