
  0%|                                                                                                                                                                                                                                                                                            | 0/10 [00:00<?, ?it/s]
0, 0.1364392638206482
1, 0.1364392638206482
2, 0.1297920197248459
3, 0.1169479638338089
4, 0.09893608093261719
5, 0.07756025344133377
6, 0.055496182292699814
7, 0.03877311199903488
8, 0.02704547718167305
9, 0.019489701837301254
10, 0.015038179233670235
11, 0.012640593573451042
12, 0.01144756656140089
13, 0.010865189135074615
14, 0.01052367128431797
15, 0.01021551713347435
16, 0.00984144490212202
17, 0.009367113932967186
18, 0.008805115707218647
19, 0.008180854842066765
20, 0.007529808208346367
21, 0.006880376487970352
22, 0.006261935457587242
23, 0.00569699052721262
24, 0.005200907588005066
25, 0.004777939058840275
26, 0.004425393417477608
27, 0.004136755131185055
28, 0.0039021330885589123
29, 0.0037089413963258266
30, 0.003545248880982399
31, 0.003400783985853195
32, 0.0032659524586051702
33, 0.0031345754396170378
34, 0.0030029730405658484
35, 0.0028688679449260235
36, 0.0027321395464241505
37, 0.0025934772565960884
38, 0.0024547590874135494
39, 0.002318195765838027
40, 0.0021858953405171633
41, 0.0020598280243575573
42, 0.0019417107105255127
43, 0.0018322974210605025
44, 0.001732121454551816
45, 0.0016413399716839194
46, 0.0015595265431329608
47, 0.00148603820707649
48, 0.0014202632009983063
49, 0.0013612527400255203
50, 0.0013079358031973243
51, 0.0012596648884937167
52, 0.0012156183365732431
53, 0.001175242941826582
54, 0.0011379159986972809
55, 0.0011033781338483095
56, 0.0010712891817092896
57, 0.0010414316784590483
58, 0.0010135835036635399
59, 0.0009877097327262163
60, 0.0009635593742132187
61, 0.0009412795188836753
62, 0.0009204863454215229
63, 0.0009013336966745555
64, 0.0008835890330374241
65, 0.0008672531694173813
66, 0.0008522247662767768
67, 0.0008383328095078468
68, 0.0008256001165136695
69, 0.0008138573612086475
70, 0.0008030789322219789
71, 0.0007932437001727521
72, 0.000784143980126828
73, 0.0007758502615615726
74, 0.0007682539289817214
75, 0.0007613039342686534
76, 0.0007549225119873881
77, 0.0007491220021620393
78, 0.0007438462926074862
79, 0.0007390746613964438
80, 0.0007347480277530849
81, 0.0007308275671675801
82, 0.0007273416849784553
83, 0.0007242303690873086
84, 0.0007214400684460998
85, 0.0007189823663793504
86, 0.0007168219308368862
87, 0.0007149635348469019
88, 0.0007133347680792212
89, 0.0007119840011000633
90, 0.0007108352147042751
91, 0.000709868676494807
92, 0.00070911122020334
93, 0.0007084766402840614
94, 0.0007080039358697832
95, 0.0007076772744767368
96, 0.0007074239547364414
97, 0.0007072759326547384
98, 0.0007071853615343571
99, 0.0007071608561091125
0 2.4191107749938965 0.05 7.640562057495117
1 2.2590558528900146 0.05 6.662966728210449
2 2.0915796756744385 0.05 5.711663246154785
3 1.8938117027282715 0.05 4.682602882385254
4 1.614114761352539 0.05 3.401594877243042
5 1.2362291812896729 0.05 1.9953162670135498
6 0.8045678734779358 0.05 0.8451604247093201
7 0.574924886226654 0.05 0.4315548539161682
8 0.4720839262008667 0.05 0.2909727096557617
9 0.39231956005096436 0.05 0.20095261931419373
10 0.3378172218799591 0.05 0.14899694919586182
11 0.2966828942298889 0.05 0.11492082476615906
12 0.2651804983615875 0.05 0.09181146323680878
13 0.24006591737270355 0.05 0.07524450123310089
14 0.21956805884838104 0.05 0.06294368207454681
15 0.20265227556228638 0.05 0.05361875891685486
16 0.1885152906179428 0.05 0.0463988222181797
17 0.17652370035648346 0.05 0.04068364202976227
18 0.16619181632995605 0.05 0.03606060519814491
19 0.15712232887744904 0.05 0.032232172787189484
20 0.14906001091003418 0.05 0.029009219259023666
21 0.14183355867862701 0.05 0.026264656335115433
22 0.1352892965078354 0.05 0.023896850645542145
23 0.12931403517723083 0.05 0.021832581609487534
24 0.12385515123605728 0.05 0.02002820000052452
25 0.11884377896785736 0.05 0.01844024285674095
26 0.11421661078929901 0.05 0.017032261937856674
27 0.10993759334087372 0.05 0.015779970213770866
28 0.10597818344831467 0.05 0.014663806185126305
29 0.1022849902510643 0.05 0.013659588061273098
30 0.09884525835514069 0.05 0.01275632157921791
31 0.09562073647975922 0.05 0.011937625706195831
32 0.09258764982223511 0.05 0.011192314326763153
33 0.08973874151706696 0.05 0.010514138266444206
34 0.08704870939254761 0.05 0.009893236681818962
35 0.08449754118919373 0.05 0.009321846067905426
36 0.08207474648952484 0.05 0.008794939145445824
37 0.07977644354104996 0.05 0.008309274911880493
38 0.07757864892482758 0.05 0.007857749238610268
39 0.07549002021551132 0.05 0.0074403416365385056
40 0.07348748296499252 0.05 0.007050835527479649
41 0.0715659111738205 0.05 0.00668692123144865
42 0.06973260641098022 0.05 0.006348710041493177
43 0.06796061992645264 0.05 0.006030154414474964
44 0.0662638396024704 0.05 0.005732802674174309
45 0.06463052332401276 0.05 0.0054536741226911545
46 0.06305576115846634 0.05 0.005191147327423096
47 0.06154073029756546 0.05 0.004944690503180027
48 0.060071803629398346 0.05 0.004711455665528774
49 0.058659862726926804 0.05 0.004492579959332943
50 0.05729208141565323 0.05 0.004285514820367098
51 0.055971015244722366 0.05 0.0040901582688093185
52 0.0546945258975029 0.05 0.003905723337084055
53 0.053458038717508316 0.05 0.00373112503439188
54 0.05226070433855057 0.05 0.003565859980881214
55 0.05110422894358635 0.05 0.003409788478165865
56 0.04997541755437851 0.05 0.003260818775743246
57 0.04888788238167763 0.05 0.003120442619547248
58 0.047830477356910706 0.05 0.002986917505040765
59 0.04680432379245758 0.05 0.0028601298108696938
60 0.04580673575401306 0.05 0.002739507472142577
61 0.044843338429927826 0.05 0.0026254854165017605
62 0.043900299817323685 0.05 0.0025162207894027233
63 0.042988359928131104 0.05 0.0024127676151692867
64 0.04210684448480606 0.05 0.0023148301988840103
65 0.04124694690108299 0.05 0.0022212499752640724
66 0.040403544902801514 0.05 0.002131339628249407
67 0.039594799280166626 0.05 0.0020468689035624266
68 0.03880135715007782 0.05 0.001965656178072095
69 0.03803497552871704 0.05 0.001888774335384369
70 0.03728591650724411 0.05 0.0018151119584217668
71 0.03655550628900528 0.05 0.001744694309309125
72 0.03584713861346245 0.05 0.0016777326818555593
73 0.03515857458114624 0.05 0.0016138986684381962
74 0.034485816955566406 0.05 0.001552725792862475
75 0.03382844850420952 0.05 0.0014940939145162702
76 0.03319358080625534 0.05 0.0014385399408638477
77 0.03257346153259277 0.05 0.0013852929696440697
78 0.03196779265999794 0.05 0.0013342557940632105
79 0.03137675300240517 0.05 0.0012853746302425861
80 0.030799711123108864 0.05 0.001238531433045864
81 0.030242929235100746 0.05 0.0011941571719944477
82 0.029695194214582443 0.05 0.0011512937489897013
83 0.029162267223000526 0.05 0.0011103409342467785
84 0.028643151745200157 0.05 0.0010711625218391418
85 0.028131019324064255 0.05 0.0010332006495445967
86 0.027636561542749405 0.05 0.0009971987456083298
87 0.02715529501438141 0.05 0.0009627705439925194
88 0.026681963354349136 0.05 0.0009294999181292951
89 0.026222508400678635 0.05 0.0008977641118690372
90 0.025769514963030815 0.05 0.0008670144015923142
91 0.02533501386642456 0.05 0.0008380233193747699
92 0.02490752376616001 0.05 0.0008099810220301151
93 0.024485895410180092 0.05 0.0007827908266335726
94 0.024075163528323174 0.05 0.0007567497086711228
95 0.023676492273807526 0.05 0.0007318945717997849
96 0.02328641153872013 0.05 0.0007079766364768147
97 0.022904129698872566 0.05 0.0006849223282188177
98 0.022529449313879013 0.05 0.0006626968388445675
99 0.02216765657067299 0.05 0.0006415836978703737
tuning, 0, 0.0007268035551533103
tuning, 1, 0.0007268035551533103
tuning, 2, 0.0007172723999246955
tuning, 3, 0.0007003563805483282
tuning, 4, 0.0006783395074307919
tuning, 5, 0.0006536277942359447
tuning, 6, 0.000629100133664906
tuning, 7, 0.0006072501419112086
tuning, 8, 0.0005880251992493868
tuning, 9, 0.0005701293121092021
tuning, 10, 0.0005536669632419944
tuning, 11, 0.0005376131739467382
tuning, 12, 0.0005206285859458148
tuning, 13, 0.0005036068032495677
tuning, 14, 0.0004871712299063802
tuning, 15, 0.00047125061973929405
tuning, 16, 0.00045614023110829294
tuning, 17, 0.0004416007432155311
tuning, 18, 0.000427779508754611
tuning, 19, 0.00041495502227917314
tuning, 20, 0.00040359795093536377
tuning, 21, 0.0003931037790607661
tuning, 22, 0.0003834977396763861
tuning, 23, 0.00037495262222364545
tuning, 24, 0.0003664831165224314
tuning, 25, 0.00035811058478429914
tuning, 26, 0.00035030764411203563
tuning, 27, 0.0003430283977650106
tuning, 28, 0.0003360677510499954
tuning, 29, 0.00032950384775176644
tuning, 30, 0.00032341197947971523
tuning, 31, 0.0003177704056724906
tuning, 32, 0.00031189335277304053
tuning, 33, 0.0003059061127714813
tuning, 34, 0.0003002503071911633
tuning, 35, 0.0002949669724330306
tuning, 36, 0.00028995738830417395
tuning, 37, 0.00028508936520665884
tuning, 38, 0.00028055335860699415
tuning, 39, 0.0002763363881967962
tuning, 40, 0.0002719796902965754
tuning, 41, 0.00026781816268339753
tuning, 42, 0.00026391883147880435
tuning, 43, 0.0002598243881948292
tuning, 44, 0.0002561492146924138
tuning, 45, 0.00025267325690947473
tuning, 46, 0.0002492394996806979
tuning, 47, 0.00024586054496467113
tuning, 48, 0.00024260212376248091
tuning, 49, 0.00023937440710142255
tuning, 50, 0.00023633654927834868
tuning, 51, 0.000233456987189129
tuning, 52, 0.00023069680901244283
tuning, 53, 0.00022787597845308483
tuning, 54, 0.00022517579782288522
tuning, 55, 0.00022244174033403397
tuning, 56, 0.00021989186643622816
tuning, 57, 0.00021741962700616568
tuning, 58, 0.00021491220104508102
tuning, 59, 0.00021249111159704626
tuning, 60, 0.0002101534337271005
tuning, 61, 0.00020798009063582867
tuning, 62, 0.00020571982895489782
tuning, 63, 0.0002035047218669206
tuning, 64, 0.00020142078574281186
tuning, 65, 0.000199350732145831
tuning, 66, 0.0001973124162759632
tuning, 67, 0.00019526967662386596
tuning, 68, 0.00019333744421601295
tuning, 69, 0.00019141356460750103
tuning, 70, 0.00018966829520650208
tuning, 71, 0.00018774039926938713
tuning, 72, 0.00018582935445010662
tuning, 73, 0.00018402711430098861
tuning, 74, 0.00018223386723548174
tuning, 75, 0.0001805063075153157
tuning, 76, 0.00017882062820717692
tuning, 77, 0.00017715815920382738
tuning, 78, 0.0001754432887537405
tuning, 79, 0.00017379815108142793
tuning, 80, 0.0001721395819913596
tuning, 81, 0.00017053267220035195
tuning, 82, 0.00016894142027013004
tuning, 83, 0.00016743544256314635
tuning, 84, 0.00016588545986451209
tuning, 85, 0.00016441526531707495
tuning, 86, 0.00016297545516863465
tuning, 87, 0.00016155985940713435
tuning, 88, 0.0001601667026989162
tuning, 89, 0.00015876033285167068
tuning, 90, 0.00015744504344183952
tuning, 91, 0.00015603737847413868
tuning, 92, 0.0001548135478515178
tuning, 93, 0.0001534242765046656
tuning, 94, 0.0001521735539427027
tuning, 95, 0.0001508242276031524
tuning, 96, 0.00014962050772737712
tuning, 97, 0.0001483418745920062
tuning, 98, 0.00014715136785525829
tuning, 99, 0.00014592288061976433
tuning, 100, 0.0001447874092264101
tuning, 101, 0.00014353306323755533
tuning, 102, 0.00014251003449317068
tuning, 103, 0.0001413128338754177
tuning, 104, 0.00014022420509718359
tuning, 105, 0.00013909504923503846
tuning, 106, 0.00013801570457872003
tuning, 107, 0.00013693793152924627
tuning, 108, 0.00013589454465545714
tuning, 109, 0.00013487879186868668
tuning, 110, 0.000133814406581223
tuning, 111, 0.00013284830492921174
tuning, 112, 0.00013181657413952053
tuning, 113, 0.00013088042032904923
tuning, 114, 0.00012993402197025716
tuning, 115, 0.00012897828128188848
tuning, 116, 0.00012801421689800918
tuning, 117, 0.00012712387251667678
tuning, 118, 0.00012620887719094753
tuning, 119, 0.0001253291848115623
tuning, 120, 0.00012441171566024423
tuning, 121, 0.00012357272498775274
tuning, 122, 0.0001226608146680519
tuning, 123, 0.00012185581726953387
tuning, 124, 0.00012095576676074415
tuning, 125, 0.00012016322580166161
tuning, 126, 0.00011932470079045743
tuning, 127, 0.00011850331065943465
tuning, 128, 0.00011774073209380731
tuning, 129, 0.00011691192048601806
tuning, 130, 0.0001161417894763872
tuning, 131, 0.00011534263467183337
tuning, 132, 0.00011459769302746281
tuning, 133, 0.00011382572120055556
tuning, 134, 0.00011309013643767685
tuning, 135, 0.00011235442798351869
tuning, 136, 0.00011162741429870948
tuning, 137, 0.0001108981596189551
tuning, 138, 0.00011017530778190121
tuning, 139, 0.00010946682596113533
tuning, 140, 0.00010876892338274047
tuning, 141, 0.0001080665533663705
tuning, 142, 0.00010739080607891083
tuning, 143, 0.00010669859329937026
tuning, 144, 0.00010601984104141593
tuning, 145, 0.0001053306768881157
tuning, 146, 0.00010465136438142508
tuning, 147, 0.00010398447921033949
tuning, 148, 0.0001033677690429613
tuning, 149, 0.00010272259532939643
tuning, 150, 0.00010206602019025013
tuning, 151, 0.00010143485269509256
tuning, 152, 0.00010084475798066705
tuning, 153, 0.00010022323112934828
tuning, 154, 9.96290473267436e-05
tuning, 155, 9.904375474434346e-05
tuning, 156, 9.843225416261703e-05
tuning, 157, 9.786782175069675e-05
tuning, 158, 9.72956622717902e-05
tuning, 159, 9.67196756391786e-05
tuning, 160, 9.616419993108138e-05
tuning, 161, 9.561358456267044e-05
tuning, 162, 9.506098285783082e-05
tuning, 163, 9.456511907046661e-05
tuning, 164, 9.400716226082295e-05
tuning, 165, 9.35169737203978e-05
tuning, 166, 9.300645615439862e-05
tuning, 167, 9.250528819393367e-05
tuning, 168, 9.199510532198474e-05
tuning, 169, 9.151652193395421e-05
tuning, 170, 9.101993055082858e-05
tuning, 171, 9.055030386662111e-05
tuning, 172, 9.00748636922799e-05
tuning, 173, 8.963516302173957e-05
tuning, 174, 8.916862134356052e-05
tuning, 175, 8.872937178239226e-05
tuning, 176, 8.82946333149448e-05
tuning, 177, 8.785753016127273e-05
tuning, 178, 8.74376273714006e-05
tuning, 179, 8.701611659489572e-05
tuning, 180, 8.66111513460055e-05
tuning, 181, 8.622131281299517e-05
tuning, 182, 8.583591261412948e-05
tuning, 183, 8.5427425801754e-05
tuning, 184, 8.50587384775281e-05
tuning, 185, 8.469632302876562e-05
tuning, 186, 8.433320908807218e-05
tuning, 187, 8.398492354899645e-05
tuning, 188, 8.361961226910353e-05
tuning, 189, 8.330214768648148e-05
tuning, 190, 8.294719737023115e-05
tuning, 191, 8.261714538093656e-05
tuning, 192, 8.230441017076373e-05
tuning, 193, 8.199276635423303e-05
tuning, 194, 8.168951899278909e-05
tuning, 195, 8.138457633322105e-05
tuning, 196, 8.109588816296309e-05
tuning, 197, 8.077946404227987e-05
tuning, 198, 8.051156328292564e-05
tuning, 199, 8.024183625821024e-05
tuning, 200, 7.995613850653172e-05
tuning, 201, 7.97137909103185e-05
tuning, 202, 7.945331162773073e-05
tuning, 203, 7.920703501440585e-05
tuning, 204, 7.894732698332518e-05
tuning, 205, 7.869405089877546e-05
tuning, 206, 7.845289655961096e-05
tuning, 207, 7.82338684075512e-05
tuning, 208, 7.799634477123618e-05
tuning, 209, 7.778544386383146e-05
tuning, 210, 7.755473779980093e-05
tuning, 211, 7.734002429060638e-05
tuning, 212, 7.71485356381163e-05
tuning, 213, 7.692888902965933e-05
tuning, 214, 7.673697109567001e-05
tuning, 215, 7.653486682102084e-05
tuning, 216, 7.635055953869596e-05
tuning, 217, 7.616649236297235e-05
tuning, 218, 7.598821684950963e-05
tuning, 219, 7.5808449764736e-05
tuning, 220, 7.56259323679842e-05
tuning, 221, 7.547641871497035e-05
tuning, 222, 7.530025322921574e-05
tuning, 223, 7.515231845900416e-05
tuning, 224, 7.49846949474886e-05
tuning, 225, 7.48470047255978e-05
tuning, 226, 7.468680996680632e-05
tuning, 227, 7.455206650774926e-05
tuning, 228, 7.441597699653357e-05
tuning, 229, 7.427613309118897e-05
tuning, 230, 7.41310796001926e-05
tuning, 231, 7.398678280878812e-05
tuning, 232, 7.387476216536015e-05
tuning, 233, 7.374287815764546e-05
tuning, 234, 7.362345786532387e-05
tuning, 235, 7.35163630452007e-05
tuning, 236, 7.341804302996024e-05
tuning, 237, 7.33278866391629e-05
tuning, 238, 7.319073483813554e-05
tuning, 239, 7.311560329981148e-05
tuning, 240, 7.30031169950962e-05
tuning, 241, 7.291707152035087e-05
tuning, 242, 7.281451689777896e-05
tuning, 243, 7.271705544553697e-05
tuning, 244, 7.263931183842942e-05
tuning, 245, 7.255344098666683e-05
tuning, 246, 7.245771121233702e-05
tuning, 247, 7.237709360197186e-05
tuning, 248, 7.230007759062573e-05
tuning, 249, 7.223949069157243e-05
tuning, 250, 7.217071834020317e-05
tuning, 251, 7.210668991319835e-05
tuning, 252, 7.204200665000826e-05
tuning, 253, 7.198148523457348e-05
tuning, 254, 7.192425982793793e-05
tuning, 255, 7.187281153164804e-05
tuning, 256, 7.182885747170076e-05
tuning, 257, 7.177210500231013e-05
tuning, 258, 7.1712740464136e-05
tuning, 259, 7.166357681853697e-05
tuning, 260, 7.160095265135169e-05
tuning, 261, 7.158106018323451e-05
tuning, 262, 7.15393471182324e-05
tuning, 263, 7.149878365453333e-05
tuning, 264, 7.145915878936648e-05
tuning, 265, 7.141936657717451e-05
tuning, 266, 7.137469219742343e-05
tuning, 267, 7.136481872294098e-05
tuning, 268, 7.132503378670663e-05
tuning, 269, 7.130330050131306e-05
tuning, 270, 7.12861874490045e-05
tuning, 271, 7.126363925635815e-05
tuning, 272, 7.123607792891562e-05
tuning, 273, 7.122239912860096e-05
tuning, 274, 7.120132067939267e-05
tuning, 275, 7.116901542758569e-05
tuning, 276, 7.116875349311158e-05
tuning, 277, 7.114082109183073e-05
tuning, 278, 7.111785816960037e-05
tuning, 279, 7.110768638085574e-05
tuning, 280, 7.110094156814739e-05
tuning, 281, 7.107615238055587e-05
tuning, 282, 7.107599958544597e-05
tuning, 283, 7.104838732630014e-05
tuning, 284, 7.104143151082098e-05
tuning, 285, 7.103936513885856e-05
tuning, 286, 7.104896212695166e-05
tuning, 287, 7.104154792614281e-05
tuning, 288, 7.103243842720985e-05
tuning, 289, 7.101424125721678e-05
tuning, 290, 7.102663221303374e-05
tuning, 291, 7.104628457454965e-05
tuning, 292, 7.101905794115737e-05
tuning, 293, 7.10169188096188e-05
tuning, 294, 7.102853851392865e-05
tuning, 295, 7.100878428900614e-05
tuning, 296, 7.103051757439971e-05
tuning, 297, 7.103517418727279e-05
tuning, 298, 7.100969378370792e-05
tuning, 299, 7.102130621206015e-05

 10%|███████████████████████████▌                                                                                                                                                                                                                                                       | 1/10 [02:41<24:12, 161.41s/it]
0, 0.1123598963022232
1, 0.1123598963022232
2, 0.1047879084944725
3, 0.0904693454504013
4, 0.07124534249305725
5, 0.05020027607679367
6, 0.031469427049160004
7, 0.020330198109149933
8, 0.014868403784930706
9, 0.012927422299981117
10, 0.012789949774742126
11, 0.013342520222067833
12, 0.013982100412249565
13, 0.014439410530030727
14, 0.014627611264586449
15, 0.014556012116372585
16, 0.014270197600126266
17, 0.013828116469085217
18, 0.013284062966704369
19, 0.012678740546107292
20, 0.012041411362588406
21, 0.011393481865525246
22, 0.010748928412795067
23, 0.010115939192473888
24, 0.009504223242402077
25, 0.008919439278542995
26, 0.008368542417883873
27, 0.007856747135519981
28, 0.007387971039861441
29, 0.006962894462049007
30, 0.00658183079212904
31, 0.006242163013666868
32, 0.005939090624451637
33, 0.005667780991643667
34, 0.005423284135758877
35, 0.005200351122766733
36, 0.004994900897145271
37, 0.004803355783224106
38, 0.004623583983629942
39, 0.004454360343515873
40, 0.004294815473258495
41, 0.004144192207604647
42, 0.004002151545137167
43, 0.0038686152547597885
44, 0.003743525128811598
45, 0.0036269023548811674
46, 0.0035188235342502594
47, 0.0034187673591077328
48, 0.0033264465164393187
49, 0.0032414670567959547
50, 0.0031636147759854794
51, 0.0030921483412384987
52, 0.0030266516841948032
53, 0.0029664933681488037
54, 0.002911268500611186
55, 0.002860352164134383
56, 0.0028132766019552946
57, 0.0027695666067302227
58, 0.0027289974968880415
