
  0%|                                                                                                                                                                                                                                                                                                                                                                              | 0/10 [00:00<?, ?it/s]
0, 0.1364392638206482
1, 0.1364392638206482
2, 0.12979215383529663
3, 0.11694847047328949
4, 0.09893625974655151
5, 0.07756026089191437
6, 0.055496104061603546
7, 0.038825616240501404
8, 0.02722211740911007
9, 0.019793163985013962
10, 0.015392838045954704
11, 0.012939470820128918
12, 0.011598153971135616
13, 0.010818248614668846
14, 0.01027651783078909
15, 0.009808141738176346
16, 0.009342307224869728
17, 0.008861768059432507
18, 0.008372611366212368
19, 0.007891897112131119
20, 0.007438209839165211
21, 0.007025673054158688
22, 0.006664055399596691
23, 0.006358610466122627
24, 0.0061104511842131615
25, 0.005919452756643295
26, 0.005779881030321121
27, 0.005686318036168814
28, 0.005631458945572376
29, 0.005606162361800671
0 2.5123131275177 0.05 7.14023494720459
1 2.351210355758667 0.05 6.253856658935547
2 2.1823267936706543 0.05 5.38771390914917
3 1.979475975036621 0.05 4.432670593261719
4 1.6754659414291382 0.05 3.175675868988037
5 1.296479344367981 0.05 1.9014992713928223
6 0.9131219983100891 0.05 0.9432408809661865
7 0.6585515141487122 0.05 0.4906191825866699
8 0.5219268798828125 0.05 0.30816569924354553
9 0.42929381132125854 0.05 0.2084847092628479
10 0.3648054301738739 0.05 0.15055234730243683
11 0.3171396553516388 0.05 0.11378004401922226
12 0.27937233448028564 0.05 0.08829411119222641
13 0.250301331281662 0.05 0.07087470591068268
14 0.22706374526023865 0.05 0.058325789868831635
15 0.207641139626503 0.05 0.04877438396215439
16 0.1918456107378006 0.05 0.04163597524166107
17 0.17895132303237915 0.05 0.03622720390558243
18 0.1681412309408188 0.05 0.031982578337192535
19 0.15889671444892883 0.05 0.028562407940626144
20 0.15084140002727509 0.05 0.02573985606431961
21 0.14370469748973846 0.05 0.02336183562874794
22 0.13735000789165497 0.05 0.02134137600660324
23 0.13161227107048035 0.05 0.019595563411712646
24 0.12640535831451416 0.05 0.01807573437690735
25 0.12164495885372162 0.05 0.01673991233110428
26 0.11728031188249588 0.05 0.015560200437903404
27 0.11324185878038406 0.05 0.014507045969367027
28 0.1094914972782135 0.05 0.013562064617872238
29 0.10599727928638458 0.05 0.012710259296000004
30 0.10272611677646637 0.05 0.011937865987420082
31 0.09965230524539948 0.05 0.011234136298298836
32 0.09674601256847382 0.05 0.010588418692350388
33 0.09400065988302231 0.05 0.009996011853218079
34 0.09139641374349594 0.05 0.009449814446270466
35 0.08891351521015167 0.05 0.008943356573581696
36 0.08654800802469254 0.05 0.008473819121718407
37 0.08429127186536789 0.05 0.008037670515477657
38 0.08214055001735687 0.05 0.007632735185325146
39 0.08007344603538513 0.05 0.007253406569361687
40 0.07809164375066757 0.05 0.00689880782738328
41 0.07619447261095047 0.05 0.00656767887994647
42 0.0743660256266594 0.05 0.006256250664591789
43 0.07260692864656448 0.05 0.005963773466646671
44 0.07091672718524933 0.05 0.005689346697181463
45 0.06928790360689163 0.05 0.005430999211966991
46 0.06771522760391235 0.05 0.005187255796045065
47 0.06619831174612045 0.05 0.004957455210387707
48 0.06473767757415771 0.05 0.0047411005944013596
49 0.06332413852214813 0.05 0.004536319058388472
tuning, 0, 0.005884299986064434
tuning, 1, 0.0040388209745287895
tuning, 2, 0.0033572835382074118
tuning, 3, 0.0027762341778725386
tuning, 4, 0.0022947133984416723
tuning, 5, 0.0019507750403136015
tuning, 6, 0.0017052467446774244
tuning, 7, 0.001563705736771226
tuning, 8, 0.0014524173457175493
tuning, 9, 0.0013212005142122507
tuning, 10, 0.0011923504061996937
tuning, 11, 0.0011211067903786898
tuning, 12, 0.0011268986854702234
tuning, 13, 0.0011753328144550323
tuning, 14, 0.0012121143518015742
tuning, 15, 0.0011940887197852135
tuning, 16, 0.0011184064205735922
tuning, 17, 0.001015320885926485
tuning, 18, 0.0009214470628648996
tuning, 19, 0.000853365461807698

 10%|███████████████████████████████████▊                                                                                                                                                                                                                                                                                                                                  | 1/10 [00:22<03:26, 22.94s/it]
0, 0.1123598963022232
1, 0.1123598963022232
2, 0.10478763282299042
3, 0.0904693529009819
4, 0.07124526053667068
5, 0.05020018666982651
6, 0.031469374895095825
7, 0.020359087735414505
8, 0.01492471992969513
9, 0.012938706204295158
10, 0.01265845075249672
11, 0.012994330376386642
12, 0.013388333842158318
13, 0.013614987954497337
14, 0.013617143034934998
15, 0.013421657495200634
16, 0.013080242089927197
17, 0.01264701597392559
18, 0.012169520370662212
19, 0.011684669181704521
20, 0.011219330132007599
21, 0.010790817439556122
22, 0.01041057612746954
23, 0.01008509285748005
24, 0.009817329235374928
25, 0.009607475250959396
26, 0.009452294558286667
27, 0.009346911683678627
28, 0.009284807369112968
29, 0.009255431592464447
0 2.8622946739196777 0.05 7.6022515296936035
1 2.6969196796417236 0.05 6.749157428741455
2 2.5246694087982178 0.05 5.914562225341797
3 2.3318090438842773 0.05 5.045446395874023
4 2.092292070388794 0.05 4.062170028686523
5 1.7660815715789795 0.05 2.8942434787750244
6 1.3688379526138306 0.05 1.7386717796325684
7 1.0126622915267944 0.05 0.9515746235847473
8 0.8032134771347046 0.05 0.5986534357070923
9 0.6810301542282104 0.05 0.4303741455078125
10 0.5817095637321472 0.05 0.3139973282814026
11 0.49497735500335693 0.05 0.2273443639278412
12 0.4288645088672638 0.05 0.17066866159439087
13 0.3791975975036621 0.05 0.13342729210853577
14 0.34007129073143005 0.05 0.10731328278779984
15 0.3084774911403656 0.05 0.088299959897995
16 0.28251761198043823 0.05 0.07406356930732727
17 0.26087722182273865 0.05 0.06315181404352188
18 0.24259833991527557 0.05 0.05461214482784271
19 0.22692887485027313 0.05 0.047785162925720215
20 0.21331004798412323 0.05 0.04222174733877182
21 0.20133981108665466 0.05 0.03761602193117142
22 0.19070184230804443 0.05 0.03374607861042023
23 0.1811862587928772 0.05 0.030462395399808884
24 0.1726207435131073 0.05 0.02765027806162834
25 0.16487114131450653 0.05 0.025223352015018463
26 0.1578351855278015 0.05 0.023116454482078552
27 0.15140746533870697 0.05 0.02127198874950409
28 0.14551950991153717 0.05 0.019649703055620193
29 0.14009685814380646 0.05 0.018212532624602318
30 0.13508735597133636 0.05 0.01693335548043251
31 0.130446195602417 0.05 0.01578979194164276
32 0.1261339783668518 0.05 0.014763105660676956
33 0.12210366874933243 0.05 0.013834740035235882
34 0.11833224445581436 0.05 0.012993307784199715
35 0.11479666084051132 0.05 0.012228467501699924
36 0.11146431416273117 0.05 0.011528830043971539
37 0.10832349210977554 0.05 0.010888270102441311
38 0.10535773634910583 0.05 0.010300218127667904
39 0.10254014283418655 0.05 0.009756665676832199
40 0.09987559914588928 0.05 0.009256191551685333
41 0.09732755273580551 0.05 0.008789924904704094
42 0.09490834921598434 0.05 0.008358385413885117
43 0.09259820729494095 0.05 0.007956438697874546
44 0.09038864076137543 0.05 0.007581257726997137
45 0.08828432112932205 0.05 0.007232371252030134
46 0.0862603709101677 0.05 0.0069045634008944035
47 0.08431807160377502 0.05 0.006597127765417099
48 0.08244455605745316 0.05 0.006307213567197323
49 0.08064866811037064 0.05 0.006035426165908575
tuning, 0, 0.00940712820738554
tuning, 1, 0.006409686990082264
tuning, 2, 0.005226858891546726
tuning, 3, 0.004981594160199165
tuning, 4, 0.004880646243691444
tuning, 5, 0.0046487292274832726
tuning, 6, 0.004323909990489483
tuning, 7, 0.004014784470200539
tuning, 8, 0.003784643020480871
tuning, 9, 0.003635336412116885
tuning, 10, 0.0035280673764646053
tuning, 11, 0.0034234996419399977
tuning, 12, 0.0033101029694080353
tuning, 13, 0.003201704006642103
tuning, 14, 0.0031172928865998983
tuning, 15, 0.0030626580119132996
tuning, 16, 0.0030237871687859297
tuning, 17, 0.0029773700516670942
tuning, 18, 0.00291005102917552
tuning, 19, 0.0028255335055291653

 20%|███████████████████████████████████████████████████████████████████████▌                                                                                                                                                                                                                                                                                              | 2/10 [00:45<03:00, 22.60s/it]
0, 0.09775816649198532
1, 0.09775816649198532
2, 0.0926152691245079
3, 0.08272566646337509
4, 0.0690140500664711
5, 0.0531066469848156
6, 0.03751780092716217
7, 0.026828696951270103
8, 0.02023864910006523
9, 0.01637859269976616
10, 0.014047576114535332
11, 0.012472845613956451
12, 0.011244816705584526
13, 0.010183284059166908
14, 0.009227138943970203
15, 0.008365483954548836
16, 0.007599260658025742
17, 0.006929045543074608
18, 0.006351278629153967
19, 0.005858888849616051
20, 0.005444332957267761
21, 0.005099831148982048
22, 0.0048177195712924
23, 0.004591267090290785
24, 0.004414455033838749
25, 0.004281230736523867
26, 0.004185978788882494
27, 0.004123216029256582
28, 0.004086569882929325
29, 0.004069786053150892
0 2.738276243209839 0.05 8.71072769165039
1 2.5752642154693604 0.05 7.704482555389404
2 2.4098103046417236 0.05 6.746299743652344
3 2.195784330368042 0.05 5.60117769241333
4 1.8230881690979004 0.05 3.861137628555298
5 1.368190884590149 0.05 2.1746697425842285
6 0.9676083326339722 0.05 1.087674856185913
7 0.7062880992889404 0.05 0.579513669013977
8 0.5531877279281616 0.05 0.35550442337989807
9 0.4630995988845825 0.05 0.24914301931858063
10 0.4020799398422241 0.05 0.18781259655952454
11 0.35690659284591675 0.05 0.14798206090927124
12 0.3217613995075226 0.05 0.12027290463447571
13 0.29323965311050415 0.05 0.09989536553621292
14 0.26940083503723145 0.05 0.08431363105773926
15 0.2492227554321289 0.05 0.07215647399425507
16 0.2320854365825653 0.05 0.06257425248622894
17 0.21741844713687897 0.05 0.05491521954536438
18 0.20477235317230225 0.05 0.04871274530887604
19 0.19373440742492676 0.05 0.043602705001831055
20 0.18404588103294373 0.05 0.03935066610574722
21 0.17544403672218323 0.05 0.03575832396745682
22 0.167731374502182 0.05 0.03268349915742874
23 0.16075050830841064 0.05 0.03001958131790161
24 0.15440429747104645 0.05 0.02769610658288002
25 0.14856742322444916 0.05 0.02564171329140663
26 0.14321237802505493 0.05 0.023826543241739273
27 0.13825877010822296 0.05 0.022206764668226242
28 0.133662149310112 0.05 0.02075471729040146
29 0.12937210500240326 0.05 0.019443806260824203
30 0.1253572553396225 0.05 0.018255718052387238
31 0.12158294767141342 0.05 0.017172962427139282
32 0.11802830547094345 0.05 0.01618349179625511
33 0.11467331647872925 0.05 0.015276527963578701
34 0.11147934943437576 0.05 0.014437391422688961
35 0.10845078527927399 0.05 0.013663607649505138
36 0.10556362569332123 0.05 0.012945788912475109
37 0.10280700027942657 0.05 0.012278500944375992
38 0.10017033666372299 0.05 0.011656769551336765
39 0.09765388071537018 0.05 0.011078448966145515
40 0.09523119777441025 0.05 0.010535579174757004
41 0.09291020780801773 0.05 0.010028287768363953
42 0.09068464487791061 0.05 0.009553608484566212
43 0.08855360001325607 0.05 0.009109875187277794
44 0.08649329841136932 0.05 0.008690902031958103
45 0.08450334519147873 0.05 0.008295598439872265
46 0.08260393142700195 0.05 0.007926862686872482
47 0.08076374977827072 0.05 0.007577620446681976
48 0.07899259775876999 0.05 0.007248911075294018
49 0.07727369666099548 0.05 0.006936866324394941
tuning, 0, 0.004210024140775204
tuning, 1, 0.0028666025027632713
tuning, 2, 0.0023641211446374655
tuning, 3, 0.0021176040172576904
tuning, 4, 0.0018732110038399696
tuning, 5, 0.0016429966781288385
tuning, 6, 0.0014708619564771652
tuning, 7, 0.0013500466011464596
tuning, 8, 0.0012714930344372988
tuning, 9, 0.0012181757483631372
tuning, 10, 0.0011627213098108768
tuning, 11, 0.0010950551368296146
tuning, 12, 0.0010221957927569747
tuning, 13, 0.0009576925076544285
tuning, 14, 0.000909702735953033
tuning, 15, 0.0008773751324042678
tuning, 16, 0.0008536204695701599
tuning, 17, 0.0008314931765198708

 30%|███████████████████████████████████████████████████████████████████████████████████████████████████████████▍                                                                                                                                                                                                                                                          | 3/10 [01:07<02:37, 22.55s/it]
tuning, 19, 0.0007784515037201345
inversion time : 21.396055936813354
0, 0.09936030954122543
1, 0.09936030954122543
2, 0.09243913739919662
3, 0.07954034954309464
4, 0.06271134316921234
5, 0.04515604302287102
6, 0.0305954422801733
7, 0.022529078647494316
8, 0.01855698600411415
9, 0.016709988936781883
10, 0.015768922865390778
11, 0.01511087454855442
12, 0.014482725411653519
13, 0.013817522674798965
14, 0.013127883896231651
15, 0.012448161840438843
16, 0.011806465685367584
17, 0.011221058666706085
18, 0.01069970428943634
19, 0.010242550633847713
20, 0.009847158566117287
21, 0.009509468451142311
22, 0.009225014597177505
23, 0.008989968337118626
24, 0.008801314979791641
25, 0.008655600249767303
26, 0.008549013175070286
27, 0.008477313444018364
28, 0.008434819057583809
29, 0.00841499026864767
0 2.8423080444335938 0.05 8.628191947937012
1 2.68711519241333 0.05 7.71169900894165
2 2.5259945392608643 0.05 6.814630508422852
3 2.3381311893463135 0.05 5.838687896728516
4 2.1074554920196533 0.05 4.74345064163208
5 1.7724997997283936 0.05 3.3554437160491943
6 1.29032564163208 0.05 1.7781819105148315
7 0.9337884187698364 0.05 0.9312677383422852
8 0.7735975980758667 0.05 0.6391573548316956
9 0.6610791087150574 0.05 0.4667500853538513
10 0.5713776350021362 0.05 0.3486776053905487
11 0.49938103556632996 0.05 0.26634320616722107
12 0.44076743721961975 0.05 0.20748969912528992
13 0.3959542214870453 0.05 0.167443186044693
14 0.3579244017601013 0.05 0.13682334125041962
15 0.3255538046360016 0.05 0.11319392919540405
16 0.29756951332092285 0.05 0.09457021951675415
17 0.27293387055397034 0.05 0.0795595794916153
18 0.2510625123977661 0.05 0.06731957197189331
19 0.2317112237215042 0.05 0.05734184756875038
20 0.2147575318813324 0.05 0.049257729202508926
21 0.1999797224998474 0.05 0.04271195828914642
22 0.1871068924665451 0.05 0.03739014267921448
23 0.17579898238182068 0.05 0.033007316291332245
24 0.16579848527908325 0.05 0.02935882657766342
25 0.15685713291168213 0.05 0.02627762220799923
26 0.1488320529460907 0.05 0.02365758828818798
27 0.14154291152954102 0.05 0.021397046744823456
28 0.1349090337753296 0.05 0.019438361749053
29 0.12884218990802765 0.05 0.017729390412569046
30 0.12325851619243622 0.05 0.016225997358560562
31 0.11810460686683655 0.05 0.014897424727678299
32 0.113345205783844 0.05 0.013720938935875893
33 0.10892947018146515 0.05 0.012672675773501396
34 0.10483141243457794 0.05 0.011737088672816753
35 0.10098754614591599 0.05 0.010892137885093689
36 0.09740479290485382 0.05 0.010133003816008568
37 0.0940503254532814 0.05 0.00944709312170744
38 0.09089991450309753 0.05 0.008824791759252548
39 0.08794225752353668 0.05 0.008259860798716545
40 0.08514303714036942 0.05 0.007742404472082853
41 0.08250462263822556 0.05 0.007269995287060738
42 0.0800122320652008 0.05 0.006837389897555113
43 0.07764207571744919 0.05 0.0064383093267679214
44 0.07539897412061691 0.05 0.006071673706173897
45 0.07325997948646545 0.05 0.005732065066695213
46 0.07122913748025894 0.05 0.005418672692030668
47 0.0692986324429512 0.05 0.005128932185471058
48 0.06744560599327087 0.05 0.004858306609094143
49 0.06568770855665207 0.05 0.00460835313424468
tuning, 0, 0.008700456470251083
tuning, 1, 0.007103445008397102
tuning, 2, 0.0065658483654260635
tuning, 3, 0.006310529541224241
tuning, 4, 0.006038231309503317
tuning, 5, 0.0057475268840789795
tuning, 6, 0.00550598930567503
tuning, 7, 0.005333875771611929
tuning, 8, 0.005205200985074043
tuning, 9, 0.005087725818157196
tuning, 10, 0.0049511585384607315
tuning, 11, 0.004794754087924957
tuning, 12, 0.004632594063878059
tuning, 13, 0.004488612990826368
tuning, 14, 0.004378522280603647
tuning, 15, 0.004295812454074621
tuning, 16, 0.004215508699417114

 40%|███████████████████████████████████████████████████████████████████████████████████████████████████████████████████████████████████████████████▏                                                                                                                                                                                                                      | 4/10 [01:30<02:15, 22.52s/it]
tuning, 18, 0.004003861919045448
tuning, 19, 0.0038857280742377043
inversion time : 21.5159170627594
0, 0.12813778221607208
1, 0.12813778221607208
2, 0.12089918553829193
3, 0.10838203132152557
4, 0.09137101471424103
5, 0.07178427278995514
6, 0.05270462483167648
7, 0.03930556774139404
8, 0.030650964006781578
9, 0.025303669273853302
10, 0.021916251629590988
11, 0.019669391214847565
12, 0.018055664375424385
13, 0.016734017059206963
14, 0.015639519318938255
15, 0.01467888057231903
16, 0.013836453668773174
17, 0.013070650398731232
18, 0.01239037699997425
19, 0.01179353054612875
20, 0.01127413660287857
21, 0.010831937193870544
22, 0.01045775692909956
23, 0.010150167159736156
24, 0.009904546663165092
25, 0.009716766886413097
26, 0.009580086916685104
27, 0.009488391689956188
28, 0.009434426203370094
29, 0.009408948943018913
0 2.680079221725464 0.05 8.863746643066406
1 2.5162806510925293 0.05 7.813404083251953
2 2.317854642868042 0.05 6.629708290100098
3 2.0317301750183105 0.05 5.093943119049072
4 1.6556695699691772 0.05 3.3827462196350098
5 1.2142772674560547 0.05 1.8195240497589111
6 0.8361326456069946 0.05 0.862725019454956
7 0.5749403834342957 0.05 0.4079131484031677
8 0.45294758677482605 0.05 0.2531733214855194
9 0.3915824294090271 0.05 0.1892206370830536
10 0.3528549373149872 0.05 0.15364360809326172
11 0.3237849175930023 0.05 0.12937051057815552
12 0.30053195357322693 0.05 0.11145597696304321
13 0.2812238931655884 0.05 0.09759478271007538
14 0.2646755278110504 0.05 0.08644694834947586
15 0.2502046525478363 0.05 0.07725255191326141
16 0.2373259961605072 0.05 0.06950447708368301
17 0.22579315304756165 0.05 0.06291347742080688
18 0.21551460027694702 0.05 0.057315949350595474
19 0.2064419388771057 0.05 0.05259178951382637
20 0.1984439641237259 0.05 0.04859570413827896
21 0.1913549154996872 0.05 0.04518572986125946
22 0.18499942123889923 0.05 0.042234063148498535
23 0.17921927571296692 0.05 0.03963615372776985
24 0.17389075458049774 0.05 0.0373142771422863
25 0.16890811920166016 0.05 0.035206522792577744
26 0.16423939168453217 0.05 0.033287156373262405
27 0.1598571538925171 0.05 0.03153452277183533
28 0.15572631359100342 0.05 0.029925823211669922
29 0.151846244931221 0.05 0.028453141450881958
30 0.14819248020648956 0.05 0.027100324630737305
31 0.1447431743144989 0.05 0.025853438302874565
32 0.141456738114357 0.05 0.024692745879292488
33 0.138345867395401 0.05 0.02361861802637577
34 0.13536642491817474 0.05 0.02261226437985897
35 0.13251560926437378 0.05 0.021669864654541016
36 0.12979163229465485 0.05 0.020788131281733513
37 0.12717367708683014 0.05 0.019957978278398514
38 0.12465868145227432 0.05 0.01917640119791031
39 0.12225475162267685 0.05 0.018443934619426727
40 0.11993275582790375 0.05 0.017749976366758347
41 0.11769428104162216 0.05 0.01709357090294361
42 0.11553870141506195 0.05 0.016473164781928062
43 0.11346706748008728 0.05 0.015887726098299026
44 0.11145400255918503 0.05 0.015328986570239067
45 0.10951540619134903 0.05 0.014800368808209896
46 0.10763342678546906 0.05 0.014296063221991062
