
  0%|                                                                                                                                                                                                                                                                                                            | 0/1 [00:00<?, ?it/s]
0, 0.1364392638206482
1, 0.1364392638206482
2, 0.12979236245155334
3, 0.11694812029600143
4, 0.098936066031456
5, 0.07756032794713974
6, 0.05549613758921623
7, 0.03877304494380951
8, 0.027045561000704765
9, 0.01948973536491394
10, 0.01503819040954113
11, 0.012640586122870445
12, 0.01144767738878727
13, 0.01086520217359066
14, 0.010523724369704723
15, 0.010215585120022297
16, 0.009841358289122581
17, 0.009367160499095917
18, 0.008805237710475922
19, 0.008180849254131317
20, 0.007529893424361944
21, 0.0068803816102445126
22, 0.006261967122554779
23, 0.005697061773389578
24, 0.005201008170843124
25, 0.004777954891324043
26, 0.004425449762493372
27, 0.004136771894991398
28, 0.003902123076841235
29, 0.0037089574616402388
30, 0.0035452567972242832
31, 0.00340072438120842
32, 0.003265904961153865
33, 0.0031345500610768795
34, 0.0030029441695660353
35, 0.0028688411694020033
36, 0.002732120454311371
37, 0.00259344931691885
38, 0.0024547893553972244
39, 0.002318201120942831
40, 0.002185922348871827
41, 0.0020598312839865685
42, 0.001941693015396595
43, 0.0018323017284274101
44, 0.0017320978222414851
45, 0.0016413235571235418
46, 0.0015594959259033203
47, 0.0014860378578305244
48, 0.0014202598249539733
49, 0.0013612242182716727
50, 0.001307941973209381
51, 0.0012596750166267157
52, 0.0012155957520008087
53, 0.001175249693915248
54, 0.0011379283387213945
55, 0.0011033773189410567
56, 0.0010712927905842662
57, 0.001041432493366301
58, 0.0010135786142200232
59, 0.000987691106274724
60, 0.0009635472088120878
61, 0.0009412909857928753
62, 0.0009204726666212082
63, 0.0009013131493702531
64, 0.0008835853077471256
65, 0.0008672643452882767
66, 0.0008522245334461331
67, 0.0008383348467759788
68, 0.0008256124565377831
69, 0.0008138465927913785
70, 0.0008030900498852134
71, 0.0007932392763905227
72, 0.0007841360638849437
73, 0.0007758486899547279
74, 0.0007682447321712971
75, 0.0007612945046275854
76, 0.000754907145164907
77, 0.000749118800740689
78, 0.0007438299944624305
79, 0.0007390648825094104
80, 0.0007347263745032251
81, 0.000730823609046638
82, 0.0007273428491316736
83, 0.0007242327556014061
84, 0.0007214555516839027
85, 0.0007189795724116266
86, 0.0007168273441493511
87, 0.0007149674347601831
88, 0.0007133347680792212
89, 0.0007119866786524653
90, 0.0007108359131962061
91, 0.0007098710630089045
92, 0.0007091175648383796
93, 0.0007084830431267619
94, 0.0007079880451783538
95, 0.0007076631300151348
96, 0.000707414117641747
97, 0.000707277562469244
98, 0.0007071850704960525
99, 0.0007071424624882638
0 2.419109344482422 0.05 7.64055061340332
1 2.2590584754943848 0.05 6.662981986999512
2 2.09157657623291 0.05 5.711645126342773
3 1.8938217163085938 0.05 4.682651996612549
4 1.614120364189148 0.05 3.4016175270080566
5 1.236263632774353 0.05 1.995427131652832
6 0.8045684099197388 0.05 0.8451614379882812
7 0.5749156475067139 0.05 0.4315408766269684
8 0.4720764458179474 0.05 0.29096338152885437
9 0.3923240005970001 0.05 0.20095711946487427
10 0.33783164620399475 0.05 0.14900963008403778
11 0.2966797947883606 0.05 0.11491839587688446
12 0.26518380641937256 0.05 0.09181373566389084
13 0.24008430540561676 0.05 0.07525601238012314
14 0.21956127882003784 0.05 0.06293977051973343
15 0.20263829827308655 0.05 0.05361134186387062
16 0.18852417171001434 0.05 0.046403177082538605
17 0.17652948200702667 0.05 0.04068630188703537
18 0.16619081795215607 0.05 0.03606016933917999
19 0.15712304413318634 0.05 0.032232459634542465
20 0.14906778931617737 0.05 0.029012244194746017
21 0.14184032380580902 0.05 0.026267159730196
22 0.13528414070606232 0.05 0.02389502339065075
23 0.1293134242296219 0.05 0.02183236926794052
24 0.12385624647140503 0.05 0.020028550177812576
25 0.11884240806102753 0.05 0.01843981444835663
26 0.11421622335910797 0.05 0.017032142728567123
27 0.10994093865156174 0.05 0.01578092761337757
28 0.1059747040271759 0.05 0.014662839472293854
29 0.10228653252124786 0.05 0.01365999598056078
30 0.09884423017501831 0.05 0.012756053358316422
31 0.09561670571565628 0.05 0.011936616152524948
32 0.09258974343538284 0.05 0.011192817240953445
33 0.0897420346736908 0.05 0.010514908470213413
34 0.08705002814531326 0.05 0.009893534705042839
35 0.0845000371336937 0.05 0.00932239554822445
36 0.08207978308200836 0.05 0.008796018548309803
37 0.07977617532014847 0.05 0.008309216238558292
38 0.07758250087499619 0.05 0.00785852875560522
39 0.07549232989549637 0.05 0.007440795190632343
40 0.0734858363866806 0.05 0.007050517946481705
41 0.07157280296087265 0.05 0.006688207387924194
42 0.06972966343164444 0.05 0.006348174065351486
43 0.06796302646398544 0.05 0.006030580028891563
44 0.06626464426517487 0.05 0.0057329400442540646
45 0.06462956964969635 0.05 0.005453511141240597
46 0.06305266171693802 0.05 0.005190635100007057
47 0.06153685972094536 0.05 0.004944066982716322
48 0.060074880719184875 0.05 0.004711937624961138
49 0.058660369366407394 0.05 0.004492657259106636
50 0.05729339271783829 0.05 0.0042857094667851925
51 0.0559704415500164 0.05 0.004090074449777603
52 0.05469823628664017 0.05 0.003906252793967724
53 0.0534561425447464 0.05 0.0037308596074581146
54 0.052261464297771454 0.05 0.003565963124856353
55 0.051100775599479675 0.05 0.003409327007830143
56 0.04997676983475685 0.05 0.0032609940972179174
57 0.048885513097047806 0.05 0.003120139706879854
58 0.04783231019973755 0.05 0.002987145446240902
59 0.04680252447724342 0.05 0.00285990908741951
60 0.0458051934838295 0.05 0.0027393221389502287
61 0.04484257847070694 0.05 0.0026253960095345974
62 0.043903693556785583 0.05 0.002516609150916338
63 0.042990874499082565 0.05 0.002413049340248108
64 0.04210565984249115 0.05 0.002314699348062277
65 0.041242193430662155 0.05 0.0022207372821867466
66 0.040407441556453705 0.05 0.0021317503415048122
67 0.039596885442733765 0.05 0.0020470842719078064
68 0.03880612924695015 0.05 0.001966139767318964
69 0.03803044185042381 0.05 0.0018883234588429332
70 0.03728804364800453 0.05 0.0018153185956180096
71 0.0365576334297657 0.05 0.0017448973376303911
72 0.03584907203912735 0.05 0.001677913125604391
73 0.03515695780515671 0.05 0.0016137500060722232
74 0.03448539972305298 0.05 0.0015526879578828812
75 0.03383216634392738 0.05 0.0014944220893085003
76 0.03319261595606804 0.05 0.001438456354662776
77 0.03257014602422714 0.05 0.0013850105460733175
78 0.03196480870246887 0.05 0.0013340061996132135
79 0.03137927129864693 0.05 0.001285580568946898
80 0.0308018047362566 0.05 0.0012386995367705822
81 0.03024408034980297 0.05 0.001194247743114829
82 0.02969474159181118 0.05 0.0011512583587318659
83 0.029161984100937843 0.05 0.001110319048166275
84 0.028640141710639 0.05 0.001070937141776085
85 0.028132691979408264 0.05 0.0010333233512938023
86 0.02763855643570423 0.05 0.000997342518530786
87 0.027151701971888542 0.05 0.0009625155944377184
88 0.02668413147330284 0.05 0.0009296508505940437
89 0.026223313063383102 0.05 0.0008978189434856176
90 0.02577280066907406 0.05 0.0008672352414578199
91 0.02533024735748768 0.05 0.000837707775644958
92 0.02490556240081787 0.05 0.0008098533726297319
93 0.024487847462296486 0.05 0.0007829155656509101
94 0.024077748879790306 0.05 0.0007569120498374104
95 0.02367781102657318 0.05 0.000731975887902081
96 0.023285573348402977 0.05 0.0007079254719428718
97 0.022901766002178192 0.05 0.000684780883602798
98 0.022529998794198036 0.05 0.0006627290276810527
99 0.022163838148117065 0.05 0.0006413624505512416
100 0.021803919225931168 0.05 0.0006207014666870236
101 0.02145904116332531 0.05 0.0006012212252244353
102 0.0211155004799366 0.05 0.0005821251543238759
103 0.020780984312295914 0.05 0.0005638271104544401
104 0.02045549266040325 0.05 0.0005463029956445098
105 0.02013475075364113 0.05 0.00052930525271222
106 0.019820505753159523 0.05 0.0005129124037921429
107 0.01951492577791214 0.05 0.0004972188035026193
108 0.019214531406760216 0.05 0.00048202916514128447
109 0.01892189122736454 0.05 0.0004674582160077989
110 0.018628805875778198 0.05 0.0004530891892500222
111 0.018349703401327133 0.05 0.0004396142903715372
112 0.018079709261655807 0.05 0.00042677269084379077
113 0.017803635448217392 0.05 0.00041383865755051374
114 0.017537495121359825 0.05 0.0004015585291199386
115 0.01727934554219246 0.05 0.00038982374826446176
116 0.017024271190166473 0.05 0.00037839965079911053
117 0.016774863004684448 0.05 0.00036739360075443983
118 0.016530178487300873 0.05 0.00035675393883138895
119 0.016288766637444496 0.05 0.00034640965168364346
120 0.016057536005973816 0.05 0.00033664447255432606
121 0.015824567526578903 0.05 0.0003269470180384815
122 0.015600967220962048 0.05 0.0003177727630827576
123 0.01537463441491127 0.05 0.0003086194337811321
124 0.01515838224440813 0.05 0.0002999987336806953
125 0.01494388934224844 0.05 0.00029156875098124146
126 0.0147368423640728 0.05 0.0002835453487932682
127 0.014528482221066952 0.05 0.00027558408328332007
128 0.014329790137708187 0.05 0.00026809785049408674
129 0.01412938628345728 0.05 0.0002606515190564096
130 0.013937896117568016 0.05 0.000253634323598817
131 0.013744637370109558 0.05 0.00024664949160069227
132 0.013559866696596146 0.05 0.00024006259627640247
133 0.013373061083257198 0.05 0.00023349380353465676
134 0.01319145131856203 0.05 0.00022719503613188863
135 0.013013683259487152 0.05 0.00022111293219495565
136 0.01283995807170868 0.05 0.00021524888870771974
137 0.01266950648277998 0.05 0.00020957192464265972
138 0.012502148747444153 0.05 0.00020407181000337005
139 0.012336989864706993 0.05 0.00019871564290951937
140 0.01217279490083456 0.05 0.00019346139742992818
141 0.012019411660730839 0.05 0.0001886166719486937
142 0.011859972961246967 0.05 0.00018364583957009017
143 0.011705691926181316 0.05 0.00017889897571876645
144 0.011554433964192867 0.05 0.00017430548905394971
145 0.011402957141399384 0.05 0.00016976520419120789
146 0.01126002799719572 0.05 0.000165536068379879
147 0.01111303549259901 0.05 0.00016124232206493616
148 0.010969656519591808 0.05 0.00015710850129835308
149 0.010831831954419613 0.05 0.00015318543592002243
150 0.010695665143430233 0.05 0.00014935826766304672
151 0.010563105344772339 0.05 0.0001456789905205369
152 0.010429948568344116 0.05 0.0001420293265255168
153 0.010298069566488266 0.05 0.00013846032379660755
154 0.010167091153562069 0.05 0.000134960631839931
155 0.01004653051495552 0.05 0.00013177889923099428
156 0.009916754439473152 0.05 0.00012839637929573655
157 0.009796157479286194 0.05 0.00012529254308901727
158 0.009675035253167152 0.05 0.0001222133869305253
159 0.009563726373016834 0.05 0.00011941751290578395
160 0.009443757124245167 0.05 0.00011644028563750908
161 0.009329128079116344 0.05 0.00011363071098458022
162 0.009214256890118122 0.05 0.00011084965080954134
163 0.009104515425860882 0.05 0.00010822495096363127
164 0.008996817283332348 0.05 0.00010567966819508001
165 0.00888757687062025 0.05 0.00010312889935448766
166 0.008785422891378403 0.05 0.00010077178740175441
167 0.008677363395690918 0.05 9.830808266997337e-05
168 0.008573305793106556 0.05 9.596442396286875e-05
169 0.008476601913571358 0.05 9.381175914313644e-05
170 0.00837278738617897 0.05 9.152796701528132e-05
171 0.008274661377072334 0.05 8.939519466366619e-05
172 0.008180872537195683 0.05 8.7380176410079e-05
173 0.00808225478976965 0.05 8.528618491254747e-05
174 0.007990911602973938 0.05 8.336933387909085e-05
175 0.007894807495176792 0.05 8.13760852906853e-05
176 0.007805323228240013 0.05 7.954181637614965e-05
177 0.007718482054769993 0.05 7.778170402161777e-05
178 0.00763259781524539 0.05 7.606036524521187e-05
179 0.0075393905863165855 0.05 7.421406189678237e-05
180 0.007457243278622627 0.05 7.260563143063337e-05
181 0.007369143422693014 0.05 7.090023427736014e-05
182 0.00729100126773119 0.05 6.940455205040053e-05
183 0.007205652538686991 0.05 6.778916576877236e-05
184 0.007121888920664787 0.05 6.622227374464273e-05
185 0.007045157719403505 0.05 6.480299634858966e-05
186 0.006967778317630291 0.05 6.33873205515556e-05
187 0.006888579111546278 0.05 6.195452442625538e-05
188 0.006813436280936003 0.05 6.061025123926811e-05
189 0.006734570953994989 0.05 5.921524279983714e-05
190 0.006665105931460857 0.05 5.799996870337054e-05
191 0.0065858871676027775 0.05 5.662943294737488e-05
192 0.006520657334476709 0.05 5.551322101382539e-05
193 0.006440857890993357 0.05 5.416280328063294e-05
194 0.006375224329531193 0.05 5.3064570238348097e-05
195 0.006306167226284742 0.05 5.192119351704605e-05
196 0.00623337784782052 0.05 5.072949716122821e-05
197 0.006170019973069429 0.05 4.9703477998264134e-05
198 0.006100975442677736 0.05 4.859731416217983e-05
199 0.006035881582647562 0.05 4.756582711706869e-05
200 0.0059701986610889435 0.05 4.6536231820937246e-05
201 0.005912716966122389 0.05 4.5644439524039626e-05
202 0.005845789331942797 0.05 4.4616965169552714e-05
203 0.005781848914921284 0.05 4.364627238828689e-05
204 0.005722180940210819 0.05 4.2750070861075073e-05
205 0.005663326010107994 0.05 4.187519516563043e-05
206 0.005600379779934883 0.05 4.094950418220833e-05
207 0.005542419385164976 0.05 4.0106286178343e-05
208 0.005488527938723564 0.05 3.93301343137864e-05
209 0.005428810138255358 0.05 3.8478930946439505e-05
210 0.00537132890895009 0.05 3.7668396544177085e-05
211 0.005313826724886894 0.05 3.6866207665298134e-05
212 0.005255308002233505 0.05 3.6058700061403215e-05
213 0.005203637760132551 0.05 3.535312134772539e-05
214 0.0051488415338099 0.05 3.461247979430482e-05
215 0.0050981901586055756 0.05 3.3934833481907845e-05
216 0.0050429170951247215 0.05 3.320300311315805e-05
217 0.004993193782866001 0.05 3.2551462936680764e-05
218 0.004942678846418858 0.05 3.1896164728095755e-05
219 0.004891388118267059 0.05 3.1237614166457206e-05
220 0.004843094386160374 0.05 3.062383257201873e-05
221 0.00479173706844449 0.05 2.9977793019497767e-05
222 0.004743623081594706 0.05 2.937879617093131e-05
223 0.004698121454566717 0.05 2.8817885322496295e-05
224 0.0046486519277095795 0.05 2.8214202757226303e-05
225 0.004608860705047846 0.05 2.7733251044992357e-05
226 0.004556484054774046 0.05 2.7106492780148983e-05
227 0.004514374770224094 0.05 2.6607795007294044e-05
228 0.004466059617698193 0.05 2.6041301680379547e-05
229 0.004428892862051725 0.05 2.5609671865822747e-05
230 0.004377468954771757 0.05 2.5018414817168377e-05
231 0.004334629513323307 0.05 2.4531134840799496e-05
232 0.004291330464184284 0.05 2.4043496523518115e-05
233 0.00425087520852685 0.05 2.359230347792618e-05
234 0.0042107547633349895 0.05 2.3149068510974757e-05
235 0.004168278072029352 0.05 2.2684389477944933e-05
236 0.004124920815229416 0.05 2.2214928321773186e-05
237 0.004081280902028084 0.05 2.1747362552559935e-05
238 0.004046180285513401 0.05 2.1374902644311078e-05
239 0.004003659822046757 0.05 2.0928013327647932e-05
240 0.003968114964663982 0.05 2.0558061805786565e-05
241 0.003928566351532936 0.05 2.015031350310892e-05
242 0.0038889979477971792 0.05 1.9746454199776053e-05
243 0.003852657275274396 0.05 1.9379138393560424e-05
244 0.003822963684797287 0.05 1.9081562641076744e-05
245 0.0037799333222210407 0.05 1.8654427549336106e-05
246 0.0037408394273370504 0.05 1.827055893954821e-05
247 0.0037080186884850264 0.05 1.7951368135982193e-05
248 0.003671581158414483 0.05 1.7600294086150825e-05
249 0.0036340889055281878 0.05 1.724268076941371e-05
250 0.0036061806604266167 0.05 1.6978867279249243e-05
251 0.00357340881600976 0.05 1.667167089181021e-05
252 0.0035368057433515787 0.05 1.633187639527023e-05
253 0.0035030925646424294 0.05 1.602200609340798e-05
254 0.0034677227959036827 0.05 1.5700101357651874e-05
255 0.00343554955907166 0.05 1.5410123523906805e-05
256 0.003403711598366499 0.05 1.5125828213058412e-05
257 0.0033734289463609457 0.05 1.4857878340990283e-05
258 0.0033467942848801613 0.05 1.4624187315348536e-05
259 0.0033105749171227217 0.05 1.4309369362308644e-05
260 0.0032826964743435383 0.05 1.4069386452320032e-05
261 0.003251240123063326 0.05 1.3801039131067228e-05
262 0.003221892286092043 0.05 1.3553008102462627e-05
263 0.0031909355893731117 0.05 1.3293818483361974e-05
264 0.003162737237289548 0.05 1.3059901903034188e-05
265 0.0031310950871556997 0.05 1.2799887372239027e-05
266 0.0031005507335066795 0.05 1.2551377949421294e-05
267 0.003072769148275256 0.05 1.2327458534855396e-05
268 0.0030468725599348545 0.05 1.2120548490202054e-05
269 0.00301927188411355 0.05 1.1901949619641528e-05
270 0.0029910728335380554 0.05 1.1680666830216069e-05
271 0.0029622346628457308 0.05 1.1456515494501218e-05
272 0.002935510827228427 0.05 1.1250738680246286e-05
273 0.0029127313755452633 0.05 1.107680600398453e-05
274 0.002882732544094324 0.05 1.0849815225810744e-05
275 0.002855737693607807 0.05 1.0647565432009287e-05
276 0.0028339300770312548 0.05 1.0485568054718897e-05
277 0.0028115548193454742 0.05 1.0320643923478201e-05
278 0.002782469615340233 0.05 1.0108217793458607e-05
tuning, 0, 0.000707714818418026
tuning, 1, 0.00065077212639153
tuning, 2, 0.0006443261518143117
tuning, 3, 0.0006225623073987663
tuning, 4, 0.0005789728602394462
tuning, 5, 0.0005491205956786871
tuning, 6, 0.000546880648471415
tuning, 7, 0.0005008631851524115
tuning, 8, 0.0005085179582238197
tuning, 9, 0.0004982652026228607
tuning, 10, 0.00045640795724466443
tuning, 11, 0.0004523445968516171
tuning, 12, 0.0004468679544515908
tuning, 13, 0.0004179160459898412
tuning, 14, 0.0004094581527169794
tuning, 15, 0.000404600752517581
tuning, 16, 0.00038823700742796063
tuning, 17, 0.0003823459264822304
tuning, 18, 0.0003768272581510246
tuning, 19, 0.0003635635366663337
tuning, 20, 0.0003573434369172901
tuning, 21, 0.00035089682205580175
tuning, 22, 0.0003403146693017334
tuning, 23, 0.0003348914906382561
tuning, 24, 0.00032942797406576574
tuning, 25, 0.0003218681085854769
tuning, 26, 0.0003169328556396067
tuning, 27, 0.0003112474223598838
tuning, 28, 0.0003055437409784645
tuning, 29, 0.0003011290682479739
tuning, 30, 0.00029634381644427776
tuning, 31, 0.0002913744538091123
tuning, 32, 0.0002855697530321777
tuning, 33, 0.00028148986166343093
tuning, 34, 0.0002775688481051475
tuning, 35, 0.00027209834661334753
tuning, 36, 0.00026984766009263694
tuning, 37, 0.0002656411088537425
tuning, 38, 0.000260756176430732
tuning, 39, 0.00025985875981859863
tuning, 40, 0.0002542987058404833
tuning, 41, 0.0002501202397979796
tuning, 42, 0.0002502878778614104
tuning, 43, 0.00024433626094833016
tuning, 44, 0.0002404366823611781
tuning, 45, 0.00023841517395339906
tuning, 46, 0.00023391476133838296
tuning, 47, 0.00023336306912824512
tuning, 48, 0.00023034861078485847
tuning, 49, 0.00022540170175489038
tuning, 50, 0.00022341986186802387
tuning, 51, 0.0002204798220191151
tuning, 52, 0.00021723273675888777
tuning, 53, 0.00021499463764484972
tuning, 54, 0.0002121527213603258
tuning, 55, 0.00020986443269066513
tuning, 56, 0.00020761432824656367
tuning, 57, 0.00020473191398195922
tuning, 58, 0.00020271906396374106
tuning, 59, 0.00020064387354068458
tuning, 60, 0.00019794258696492761
tuning, 61, 0.00019575058831833303
tuning, 62, 0.00019365036860108376
tuning, 63, 0.00019136993796564639
tuning, 64, 0.00018925784388557076
tuning, 65, 0.00018716300837695599
tuning, 66, 0.0001851624110713601
tuning, 67, 0.00018336932407692075
tuning, 68, 0.00018107930372934788
tuning, 69, 0.00017897345242090523
tuning, 70, 0.00017703426419757307
tuning, 71, 0.00017496586951892823
tuning, 72, 0.00017315964214503765
tuning, 73, 0.00017115414084400982
tuning, 74, 0.00016933765436988324
tuning, 75, 0.00016752402007114142
tuning, 76, 0.00016563883400522172
tuning, 77, 0.0001641545386519283
tuning, 78, 0.00016244061407633126
tuning, 79, 0.00016046647215262055
tuning, 80, 0.00015875414828769863
tuning, 81, 0.00015695576439611614
tuning, 82, 0.00015540648018941283
