
  0%|                                                                                                                                                                                                                                                                                            | 0/10 [00:00<?, ?it/s]
0, 0.1364392638206482
1, 0.1364392638206482
2, 0.1297924816608429
3, 0.1169479638338089
4, 0.098936066031456
5, 0.0775601863861084
6, 0.055496226996183395
7, 0.03876963257789612
8, 0.02703375741839409
9, 0.019469762220978737
10, 0.015015220269560814
11, 0.012622598558664322
12, 0.011442053131759167
13, 0.01087619736790657
14, 0.010551152750849724
15, 0.010257959365844727
16, 0.00989249162375927
17, 0.009423377923667431
18, 0.008859798312187195
19, 0.008230934850871563
20, 0.007570955902338028
21, 0.006912877783179283
22, 0.0062874178402125835
23, 0.00572219118475914
24, 0.005231236573308706
25, 0.0048193661496043205
26, 0.004483769182115793
27, 0.004216285422444344
28, 0.004004377871751785
29, 0.003833657829090953
30, 0.0036885333247482777
31, 0.003556170966476202
32, 0.003426283597946167
33, 0.003291764995083213
34, 0.003148861927911639
35, 0.0029970668256282806
36, 0.002837797626852989
37, 0.002674004528671503
38, 0.00250941701233387
39, 0.0023484292905777693
40, 0.0021946076303720474
41, 0.0020511760376393795
42, 0.0019201498944312334
43, 0.0018026464385911822
44, 0.0016986299306154251
45, 0.0016072060680016875
46, 0.0015270145377144217
47, 0.0014561072457581758
48, 0.0013925982639193535
49, 0.0013346172636374831
50, 0.001280535594560206
51, 0.0012294328771531582
52, 0.0011805975809693336
53, 0.0011339526390656829
54, 0.001089376863092184
55, 0.0010469118133187294
56, 0.0010069154668599367
57, 0.0009695780463516712
58, 0.0009349092724733055
59, 0.00090280722361058
60, 0.0008730132831260562
61, 0.0008452520705759525
62, 0.0008191961678676307
63, 0.0007945923134684563
64, 0.0007712316582910717
65, 0.0007488575065508485
66, 0.0007273787050507963
67, 0.0007067498518154025
68, 0.0006870210054330528
69, 0.0006682164967060089
70, 0.000650490983389318
71, 0.0006337992381304502
72, 0.0006182051729410887
73, 0.0006036466802470386
74, 0.0005901078693568707
75, 0.0005774672608822584
76, 0.0005656428402289748
77, 0.0005545541644096375
78, 0.0005440649692900479
79, 0.0005341487703844905
80, 0.0005246547516435385
81, 0.0005156073602847755
82, 0.0005069274920970201
83, 0.0004986265557818115
84, 0.000490683363750577
85, 0.000483102718135342
86, 0.0004758364229928702
87, 0.0004689031920861453
88, 0.0004622939450200647
89, 0.00045595125993713737
90, 0.00044986975262872875
91, 0.00044403638457879424
92, 0.0004384494386613369
93, 0.00043307209853082895
94, 0.00042790413135662675
95, 0.000422904035076499
96, 0.00041809648973867297
97, 0.00041343335760757327
98, 0.0004089247086085379
99, 0.0004045607929583639
100, 0.00040031172102317214
101, 0.00039619667222723365
102, 0.0003922153846360743
103, 0.00038833622238598764
104, 0.000384576094802469
105, 0.00038093968760222197
106, 0.0003773811913561076
107, 0.00037396172410808504
108, 0.000370624999050051
109, 0.0003673957835417241
110, 0.00036425061989575624
111, 0.00036119454307481647
112, 0.00035820697667077184
113, 0.000355289172148332
114, 0.00035244866739958525
115, 0.0003496618883218616
116, 0.0003469536895863712
117, 0.00034430818050168455
118, 0.000341723149176687
119, 0.00033919746056199074
120, 0.0003367341705597937
121, 0.0003343221906106919
122, 0.00033197732409462333
123, 0.00032967430888675153
124, 0.000327424262650311
125, 0.0003252260503359139
126, 0.0003230795555282384
127, 0.00032096554059535265
128, 0.000318908627377823
129, 0.0003168808179907501
130, 0.00031490548280999064
131, 0.0003129529068246484
132, 0.0003110563848167658
133, 0.0003091924008913338
134, 0.00030735734617337584
135, 0.0003055688866879791
136, 0.000303817680105567
137, 0.00030209438409656286
138, 0.00030040834099054337
139, 0.00029875600012019277
140, 0.0002971350331790745
141, 0.00029553953208960593
142, 0.00029397898470051587
143, 0.00029245519544929266
144, 0.0002909573959186673
145, 0.00028948980616405606
146, 0.00028803825262002647
147, 0.0002866361173801124
148, 0.0002852397155947983
149, 0.00028388574719429016
150, 0.0002825516276061535
151, 0.000281245622318238
152, 0.0002799492795020342
153, 0.00027869196492247283
154, 0.0002774579625111073
155, 0.00027623859932646155
156, 0.0002750490384642035
157, 0.0002738734183367342
158, 0.000272729666903615
159, 0.0002715990995056927
160, 0.00027048788615502417
161, 0.0002694172435440123
162, 0.00026834732852876186
163, 0.0002673015696927905
164, 0.0002662669285200536
165, 0.0002652598195709288
166, 0.0002642835024744272
167, 0.00026330596301704645
168, 0.0002623584005050361
169, 0.0002614290569908917
170, 0.0002605115296319127
171, 0.000259614986134693
172, 0.00025873162667267025
173, 0.0002578702406026423
174, 0.00025701834238134325
175, 0.0002561851288191974
176, 0.0002553678641561419
177, 0.00025456352159380913
178, 0.00025378281134180725
179, 0.0002530085912439972
180, 0.00025224790442734957
181, 0.00025151376030407846
182, 0.00025077851023525
183, 0.0002500555419828743
184, 0.0002493464562576264
185, 0.00024865870364010334
186, 0.00024797796504572034
187, 0.00024731739540584385
188, 0.0002466558653395623
189, 0.00024602276971563697
190, 0.0002453890338074416
191, 0.0002447737497277558
192, 0.0002441730466671288
193, 0.00024357081565540284
194, 0.0002429952146485448
195, 0.00024242156359832734
196, 0.00024186230439227074
197, 0.0002413141046417877
198, 0.0002407747961115092
199, 0.00024025238235481083
200, 0.00023973174393177032
201, 0.00023922311083879322
202, 0.00023873031022958457
203, 0.00023824161326047033
204, 0.00023775987210683525
205, 0.00023729591339360923
206, 0.00023683659674134105
207, 0.00023639090068172663
208, 0.00023596179380547255
209, 0.00023552938364446163
210, 0.00023510906612500548
211, 0.00023468947620131075
212, 0.00023428221174981445
213, 0.00023389315174426883
214, 0.0002335110621061176
215, 0.00023312619305215776
216, 0.00023276956926565617
217, 0.00023240216250997037
218, 0.00023205034085549414
219, 0.00023170367057900876
220, 0.0002313718432560563
221, 0.00023104934371076524
222, 0.0002307165414094925
223, 0.00023040790983941406
224, 0.00023009616415947676
225, 0.00022979240748099983
226, 0.00022950423590373248
227, 0.0002292177377967164
228, 0.0002289376425324008
229, 0.00022866559447720647
230, 0.0002284043002873659
231, 0.0002281379420310259
232, 0.00022788532078266144
233, 0.0002276440354762599
234, 0.0002274050930282101
235, 0.00022716785315424204
236, 0.00022694875951856375
237, 0.00022673208150081336
238, 0.00022650793835055083
239, 0.000226302829105407
240, 0.00022610087762586772
241, 0.00022589978470932692
242, 0.00022571845329366624
243, 0.00022553035523742437
244, 0.00022534935851581395
245, 0.00022517723846249282
246, 0.0002250109100714326
247, 0.0002248475793749094
248, 0.00022469319810625166
249, 0.00022454510326497257
250, 0.00022440237808041275
251, 0.00022426391660701483
252, 0.00022412689577322453
253, 0.00022400642046704888
254, 0.0002238814195152372
255, 0.00022376130800694227
256, 0.00022364920005202293
257, 0.0002235411520814523
258, 0.00022343538876157254
259, 0.00022334101959131658
260, 0.00022324625751934946
261, 0.00022315618116408587
262, 0.00022307246399577707
263, 0.00022299287957139313
264, 0.00022291470668278635
265, 0.00022283899306785315
266, 0.00022276456002146006
267, 0.00022269878536462784
268, 0.0002226469514425844
269, 0.00022258485842030495
270, 0.00022253433417063206
271, 0.0002224804338766262
272, 0.00022242979321163148
273, 0.00022238510427996516
274, 0.0002223456249339506
275, 0.00022230464674066752
276, 0.00022226937289815396
277, 0.00022223382256925106
278, 0.0002222037292085588
279, 0.00022217314108274877
280, 0.00022214639466255903
281, 0.00022212111798580736
282, 0.00022210608585737646
283, 0.00022208070731721818
284, 0.00022207257279660553
285, 0.0002220513706561178
286, 0.0002220377209596336
287, 0.00022202308173291385
288, 0.00022201516549102962
289, 0.00022200823877938092
290, 0.000221997092012316
291, 0.00022199223167262971
292, 0.00022198518854565918
293, 0.00022198641090653837
294, 0.00022197619546204805
295, 0.00022197325597517192
296, 0.00022197415819391608
297, 0.00022197741782292724
298, 0.00022197235375642776
299, 0.00022197297948878258
0 2.5136923789978027 0.05 7.823066711425781
1 2.357503652572632 0.05 6.881095886230469
2 2.1927900314331055 0.05 5.953150749206543
3 1.9881330728530884 0.05 4.893771171569824
4 1.7110309600830078 0.05 3.62467098236084
5 1.3076729774475098 0.05 2.117147207260132
6 0.8685498237609863 0.05 0.9339902997016907
7 0.6057734489440918 0.05 0.45433199405670166
8 0.4975147843360901 0.05 0.3064536452293396
9 0.4130573272705078 0.05 0.21123872697353363
10 0.3526294529438019 0.05 0.1539536416530609
11 0.30753251910209656 0.05 0.11709406971931458
12 0.2723535895347595 0.05 0.09183727949857712
13 0.24452675879001617 0.05 0.07402963936328888
14 0.2221681922674179 0.05 0.06111060082912445
15 0.20405156910419464 0.05 0.051550477743148804
16 0.1891096532344818 0.05 0.04427720978856087
17 0.1765672117471695 0.05 0.03859872370958328
18 0.16589103639125824 0.05 0.03407207876443863
19 0.15666699409484863 0.05 0.030388399958610535
20 0.14855997264385223 0.05 0.02732476219534874
21 0.14135707914829254 0.05 0.024739332497119904
22 0.13488005101680756 0.05 0.022524144500494003
23 0.1290029138326645 0.05 0.02060401812195778
24 0.12365371733903885 0.05 0.018930723890662193
25 0.11873489618301392 0.05 0.017454586923122406
26 0.11419873684644699 0.05 0.01614639163017273
27 0.11000148206949234 0.05 0.014981312677264214
28 0.10610271245241165 0.05 0.013938169926404953
29 0.1024678498506546 0.05 0.01299954205751419
30 0.09907101094722748 0.05 0.012151950970292091
31 0.09588241577148438 0.05 0.011382319033145905
32 0.09287629276514053 0.05 0.010679787024855614
33 0.09004920721054077 0.05 0.010039512068033218
34 0.08737973868846893 0.05 0.009453101083636284
35 0.08484066277742386 0.05 0.008911708369851112
36 0.08244188874959946 0.05 0.008414894342422485
37 0.08015037328004837 0.05 0.007953602820634842
38 0.07796625047922134 0.05 0.007526032626628876
39 0.07588795572519302 0.05 0.00713014742359519
40 0.07389654964208603 0.05 0.006760848686099052
41 0.07199006527662277 0.05 0.006416495889425278
42 0.0701596811413765 0.05 0.006094357930123806
43 0.06840862333774567 0.05 0.005793946795165539
44 0.06672365218400955 0.05 0.005512040574103594
45 0.06510543823242188 0.05 0.00524792168289423
46 0.063544861972332 0.05 0.004999351687729359
47 0.0620444193482399 0.05 0.004766046069562435
48 0.06059233099222183 0.05 0.004545567557215691
49 0.059189509600400925 0.05 0.00433752778917551
50 0.05784730240702629 0.05 0.00414303969591856
51 0.05653684213757515 0.05 0.003957454115152359
52 0.05527709424495697 0.05 0.003783059772104025
53 0.054055407643318176 0.05 0.0036176880821585655
54 0.05287152901291847 0.05 0.003460959531366825
55 0.051731109619140625 0.05 0.003313266672194004
56 0.05061899498105049 0.05 0.0031723410356789827
57 0.04954415559768677 0.05 0.003039048984646797
58 0.04850192740559578 0.05 0.00291253300383687
59 0.04749501869082451 0.05 0.002792858751490712
60 0.046518366783857346 0.05 0.002679178724065423
61 0.04556182026863098 0.05 0.0025701289996504784
62 0.04463895037770271 0.05 0.0024670660495758057
63 0.04373969882726669 0.05 0.0023686690255999565
64 0.04287320002913475 0.05 0.0022757500410079956
65 0.04201662167906761 0.05 0.0021857228130102158
66 0.041195061057806015 0.05 0.0021010825876146555
67 0.040395330637693405 0.05 0.0020202966406941414
68 0.03961232677102089 0.05 0.0019427346996963024
69 0.03885849192738533 0.05 0.0018694964237511158
70 0.03811633214354515 0.05 0.0017987674800679088
71 0.037397533655166626 0.05 0.0017315646400675178
72 0.03669724613428116 0.05 0.0016673231730237603
73 0.036020148545503616 0.05 0.001606363570317626
74 0.03535187616944313 0.05 0.001547311432659626
75 0.03470660746097565 0.05 0.0014913418563082814
76 0.034079164266586304 0.05 0.0014379068743437529
77 0.03346047177910805 0.05 0.0013861714396625757
78 0.032858047634363174 0.05 0.001336707267910242
79 0.03227567300200462 0.05 0.001289743697270751
80 0.031703874468803406 0.05 0.0012444499880075455
81 0.03114830143749714 0.05 0.0012012171791866422
82 0.03060867264866829 0.05 0.0011599569115787745
83 0.030075719580054283 0.05 0.0011199144646525383
84 0.02955855429172516 0.05 0.0010817308211699128
85 0.02905101515352726 0.05 0.0010449017863720655
86 0.028560196980834007 0.05 0.0010098926723003387
87 0.02807755023241043 0.05 0.0009760481189005077
88 0.027606714516878128 0.05 0.0009435876272618771
89 0.027142688632011414 0.05 0.000912133720703423
90 0.026698607951402664 0.05 0.0008825311670079827
91 0.026256224140524864 0.05 0.0008535271044820547
92 0.02582944743335247 0.05 0.0008260057657025754
93 0.025404678657650948 0.05 0.0007990614976733923
94 0.02499542571604252 0.05 0.0007735241670161486
95 0.0245928093791008 0.05 0.0007488057017326355
96 0.024199174717068672 0.05 0.000725026533473283
97 0.02381768450140953 0.05 0.0007023472571745515
98 0.023437241092324257 0.05 0.000680088996887207
99 0.02306974120438099 0.05 0.0006589283584617078
tuning, 0, 0.000257631967542693
tuning, 1, 0.000257631967542693
tuning, 2, 0.00025579793145880103
tuning, 3, 0.0002527263422962278
tuning, 4, 0.0002488401660230011
tuning, 5, 0.0002443839912302792
tuning, 6, 0.00023964428692124784
tuning, 7, 0.00023452891036868095
tuning, 8, 0.00022911556879989803
tuning, 9, 0.00022371704108081758
tuning, 10, 0.00021848292089998722
tuning, 11, 0.0002134382666554302
tuning, 12, 0.0002088662440655753
tuning, 13, 0.00020455084450077266
tuning, 14, 0.00020060568931512535
tuning, 15, 0.00019684717699419707
tuning, 16, 0.00019331036310177296
tuning, 17, 0.0001896450703497976
tuning, 18, 0.00018621666822582483
tuning, 19, 0.0001829236134653911
tuning, 20, 0.0001799881865736097
tuning, 21, 0.00017700610624160618
tuning, 22, 0.00017414218746125698
tuning, 23, 0.00017124022997450083
tuning, 24, 0.00016856791626196355
tuning, 25, 0.0001659672416280955
tuning, 26, 0.00016343336028512567
tuning, 27, 0.0001608912571100518
tuning, 28, 0.0001585704303579405
tuning, 29, 0.00015635392628610134
tuning, 30, 0.00015420516137965024
tuning, 31, 0.00015212180733215064
tuning, 32, 0.00015004751912783831
tuning, 33, 0.0001479226048104465
tuning, 34, 0.00014587337500415742
tuning, 35, 0.00014406302943825722
tuning, 36, 0.00014196679694578052
tuning, 37, 0.00014012493193149567
tuning, 38, 0.00013827625662088394
tuning, 39, 0.0001364194613415748
tuning, 40, 0.00013465787924360484
tuning, 41, 0.00013295310782268643
tuning, 42, 0.00013134191976860166
tuning, 43, 0.00012975791469216347
tuning, 44, 0.00012824720761273056
tuning, 45, 0.00012727105058729649
tuning, 46, 0.0001275561808142811
tuning, 47, 0.0001299651339650154
tuning, 48, 0.00013209179451223463
tuning, 49, 0.00012685955152846873
tuning, 50, 0.00011980559065705165
tuning, 51, 0.00011886766878888011
tuning, 52, 0.00012070944649167359
tuning, 53, 0.00011816924961749464
tuning, 54, 0.00011376358452253044
tuning, 55, 0.00011330800771247596
tuning, 56, 0.00011468632146716118
tuning, 57, 0.00011134613305330276
tuning, 58, 0.0001085775438696146
tuning, 59, 0.00010892182763200253
tuning, 60, 0.00010900181223405525
tuning, 61, 0.00010589480370981619
tuning, 62, 0.00010383740300312638
tuning, 63, 0.00010438661411171779
tuning, 64, 0.00010428442328702658
tuning, 65, 0.00010117424972122535
tuning, 66, 9.945122292265296e-05
tuning, 67, 0.00010005895455833524
tuning, 68, 9.957994188880548e-05
tuning, 69, 9.606617095414549e-05
tuning, 70, 9.556823351886123e-05
tuning, 71, 9.533144475426525e-05
tuning, 72, 9.40450991038233e-05
tuning, 73, 9.189435513690114e-05
tuning, 74, 9.150904224952683e-05
tuning, 75, 9.068750659935176e-05
tuning, 76, 8.944973524194211e-05
tuning, 77, 8.788285776972771e-05
tuning, 78, 8.734014409128577e-05
tuning, 79, 8.6249339801725e-05
tuning, 80, 8.511454507242888e-05
tuning, 81, 8.43042362248525e-05
tuning, 82, 8.378197526326403e-05
tuning, 83, 8.233798143919557e-05
tuning, 84, 8.12065409263596e-05
tuning, 85, 8.056704245973378e-05
tuning, 86, 7.993780309334397e-05
tuning, 87, 7.880242628743872e-05
tuning, 88, 7.801828905940056e-05
tuning, 89, 7.719998393440619e-05
tuning, 90, 7.63407297199592e-05
tuning, 91, 7.503918459406123e-05
tuning, 92, 7.465897942893207e-05
tuning, 93, 7.406008808175102e-05
tuning, 94, 7.27998121874407e-05
tuning, 95, 7.113429455785081e-05
tuning, 96, 7.035295129753649e-05
tuning, 97, 6.947883230168372e-05
tuning, 98, 6.855724495835602e-05
tuning, 99, 6.717475480400026e-05
tuning, 100, 6.630158168263733e-05
tuning, 101, 6.546638906002045e-05
tuning, 102, 6.444926839321852e-05
tuning, 103, 6.351419142447412e-05
tuning, 104, 6.242924428079277e-05
tuning, 105, 6.191594002302736e-05
tuning, 106, 6.17694022366777e-05
tuning, 107, 6.106902583269402e-05
tuning, 108, 6.154034053906798e-05
tuning, 109, 6.303220288828015e-05
tuning, 110, 6.734093767590821e-05
tuning, 111, 7.58406167733483e-05
tuning, 112, 7.531698793172836e-05
tuning, 113, 6.514834240078926e-05
tuning, 114, 5.636237619910389e-05
tuning, 115, 5.7058798120124266e-05
tuning, 116, 6.240370566956699e-05
tuning, 117, 6.334242061711848e-05
tuning, 118, 5.382911695051007e-05
tuning, 119, 5.246865839581005e-05
tuning, 120, 5.9347461501602083e-05
tuning, 121, 5.838769720867276e-05
tuning, 122, 5.087818135507405e-05
tuning, 123, 5.2867631893604994e-05
tuning, 124, 6.047863280400634e-05
tuning, 125, 5.214907287154347e-05
tuning, 126, 4.75548513350077e-05
tuning, 127, 5.977664841338992e-05
tuning, 128, 4.976722993887961e-05
tuning, 129, 4.718745913123712e-05
tuning, 130, 5.052344567957334e-05
tuning, 131, 4.6728495362913236e-05
tuning, 132, 4.410609108163044e-05
tuning, 133, 4.354923657956533e-05
tuning, 134, 4.3973410356557e-05
tuning, 135, 4.1146900912281126e-05
tuning, 136, 4.2924119043163955e-05
tuning, 137, 4.085094769834541e-05
tuning, 138, 4.3203381210332736e-05
tuning, 139, 4.064520544488914e-05
tuning, 140, 4.0736642404226586e-05
tuning, 141, 4.22263219661545e-05
tuning, 142, 3.856891271425411e-05
tuning, 143, 4.143745172768831e-05
tuning, 144, 3.7459634768310934e-05
tuning, 145, 3.9338210626738146e-05
tuning, 146, 3.620278221205808e-05
tuning, 147, 3.8142461562529206e-05
tuning, 148, 3.676330015878193e-05
tuning, 149, 3.7486166547751054e-05
tuning, 150, 3.6910838389303535e-05
tuning, 151, 3.509348607622087e-05
tuning, 152, 3.679190558614209e-05
tuning, 153, 3.241170634282753e-05
tuning, 154, 3.58743745891843e-05
tuning, 155, 3.185017703799531e-05
tuning, 156, 3.561417543096468e-05
tuning, 157, 3.137086969218217e-05
tuning, 158, 3.393784209038131e-05
tuning, 159, 3.136927989544347e-05
tuning, 160, 3.245212428737432e-05
tuning, 161, 3.196991019649431e-05
tuning, 162, 3.014824142155703e-05
tuning, 163, 3.308849409222603e-05
tuning, 164, 2.8195119739393704e-05
tuning, 165, 3.331763582536951e-05
tuning, 166, 2.7558311558095738e-05
tuning, 167, 3.2144820579560474e-05
tuning, 168, 2.7825146389659494e-05
tuning, 169, 2.9370654374361038e-05
tuning, 170, 2.814608706103172e-05
tuning, 171, 2.7354084522812627e-05
tuning, 172, 2.9251412343000993e-05
tuning, 173, 2.6389969207230024e-05
tuning, 174, 2.864333328034263e-05
tuning, 175, 2.499263791833073e-05
tuning, 176, 2.7513768145581707e-05
tuning, 177, 2.4214343284256756e-05
tuning, 178, 2.7277223125565797e-05
tuning, 179, 2.4399361791438423e-05
tuning, 180, 2.6050269298139028e-05
tuning, 181, 2.3663194951950572e-05
tuning, 182, 2.4012188077904284e-05
tuning, 183, 2.3640928702661768e-05
tuning, 184, 2.3005351977190003e-05
tuning, 185, 2.3792685169610195e-05
tuning, 186, 2.249802855658345e-05
tuning, 187, 2.323844819329679e-05
tuning, 188, 2.1526988348341547e-05
tuning, 189, 2.2773179807700217e-05
tuning, 190, 2.0861260054516606e-05
tuning, 191, 2.321373722224962e-05
tuning, 192, 2.052361742244102e-05
tuning, 193, 2.231978578492999e-05
