
  0%|                                                                                                                                                                                                                                                                                                                                                                              | 0/10 [00:00<?, ?it/s]
0, 0.1364392638206482
1, 0.1364392638206482
2, 0.12979233264923096
3, 0.11694800853729248
4, 0.09893620014190674
5, 0.07756031304597855
6, 0.055496107786893845
7, 0.03882572427392006
8, 0.02722221240401268
9, 0.019793108105659485
10, 0.015392789617180824
11, 0.012939510866999626
12, 0.011598153971135616
13, 0.01081828773021698
14, 0.010276544839143753
15, 0.009808214381337166
16, 0.009342264384031296
17, 0.00886179506778717
18, 0.008372634649276733
19, 0.007891868241131306
20, 0.007438212167471647
21, 0.007025744300335646
22, 0.006663990672677755
23, 0.006358432583510876
24, 0.0061105042695999146
25, 0.005919313058257103
26, 0.005779848899692297
27, 0.005686370190232992
28, 0.005631438456475735
29, 0.005606226157397032
0 2.512312173843384 0.05 7.1402177810668945
1 2.3512063026428223 0.05 6.253826141357422
2 2.182323932647705 0.05 5.387691497802734
3 1.9794665575027466 0.05 4.432621479034424
4 1.6754522323608398 0.05 3.175618886947632
5 1.2964692115783691 0.05 1.9014664888381958
6 0.9130785465240479 0.05 0.9431495666503906
7 0.6585645079612732 0.05 0.49063771963119507
8 0.5219141244888306 0.05 0.30815017223358154
9 0.4292983114719391 0.05 0.20848876237869263
10 0.3648112416267395 0.05 0.15055692195892334
11 0.31713420152664185 0.05 0.11377596110105515
12 0.27936139702796936 0.05 0.08828706294298172
13 0.25028809905052185 0.05 0.07086710631847382
14 0.2270427793264389 0.05 0.05831491947174072
15 0.2076375037431717 0.05 0.048772599548101425
16 0.191835418343544 0.05 0.04163148254156113
17 0.1789432018995285 0.05 0.03622385859489441
18 0.16814270615577698 0.05 0.031983084976673126
19 0.15890251100063324 0.05 0.028564445674419403
20 0.1508360207080841 0.05 0.025737980380654335
21 0.14371448755264282 0.05 0.023364977911114693
22 0.13735327124595642 0.05 0.021342352032661438
23 0.13161583244800568 0.05 0.019596591591835022
24 0.12640522420406342 0.05 0.018075669184327126
25 0.12164591252803802 0.05 0.01674015074968338
26 0.1172768771648407 0.05 0.01555926539003849
27 0.11323519796133041 0.05 0.014505315572023392
28 0.10949131101369858 0.05 0.013561995700001717
29 0.1060028076171875 0.05 0.012711563147604465
30 0.10272569209337234 0.05 0.01193774864077568
31 0.09964968264102936 0.05 0.011233527213335037
32 0.09674584120512009 0.05 0.01058836467564106
33 0.09400347620248795 0.05 0.009996595792472363
34 0.09139372408390045 0.05 0.009449243545532227
35 0.08891429007053375 0.05 0.008943498134613037
36 0.08654837310314178 0.05 0.008473875001072884
37 0.08429589122533798 0.05 0.008038537576794624
38 0.0821385607123375 0.05 0.007632353343069553
39 0.08007144182920456 0.05 0.007253032177686691
40 0.07809197157621384 0.05 0.0068988557904958725
41 0.07619340717792511 0.05 0.0065674856305122375
42 0.07436760514974594 0.05 0.0062565067782998085
43 0.0726039856672287 0.05 0.005963280331343412
44 0.07091866433620453 0.05 0.005689647980034351
45 0.06928620487451553 0.05 0.0054307254031300545
46 0.06771287322044373 0.05 0.0051868874579668045
47 0.0661991536617279 0.05 0.0049575744196772575
48 0.06473775953054428 0.05 0.004741106182336807
49 0.063323475420475 0.05 0.004536216612905264
50 0.0619606152176857 0.05 0.004343059379607439
51 0.06063548102974892 0.05 0.0041592782363295555
52 0.05936271324753761 0.05 0.0039865002036094666
53 0.05813151225447655 0.05 0.0038228523917496204
54 0.05693909898400307 0.05 0.003667630022391677
55 0.055777475237846375 0.05 0.003519508522003889
56 0.054655272513628006 0.05 0.0033793128095567226
57 0.05356721207499504 0.05 0.0032461038790643215
58 0.05251045897603035 0.05 0.0031192912720143795
59 0.05149267241358757 0.05 0.002999543445184827
60 0.0504923053085804 0.05 0.00288412906229496
61 0.049523599445819855 0.05 0.002774525433778763
62 0.04858170077204704 0.05 0.0026699905283749104
63 0.04767236113548279 0.05 0.0025709737092256546
64 0.046783141791820526 0.05 0.0024759566877037287
65 0.04591556265950203 0.05 0.002384976716712117
66 0.04507313668727875 0.05 0.00229826383292675
67 0.04425263777375221 0.05 0.0022153514437377453
68 0.043450139462947845 0.05 0.0021357317455112934
69 0.042675405740737915 0.05 0.002060248516499996
70 0.041912294924259186 0.05 0.001987225841730833
71 0.04116838052868843 0.05 0.0019173079635947943
72 0.040445394814014435 0.05 0.00185055669862777
73 0.039742495864629745 0.05 0.0017867942806333303
74 0.03905665501952171 0.05 0.0017256566789001226
75 0.03838159143924713 0.05 0.001666518859565258
76 0.03772379085421562 0.05 0.0016098853666335344
77 0.03708276525139809 0.05 0.0015556381549686193
78 0.03645744547247887 0.05 0.0015036152908578515
79 0.035844411700963974 0.05 0.0014534739311784506
80 0.035246700048446655 0.05 0.00140540418215096
81 0.03466309607028961 0.05 0.0013592489995062351
82 0.03409169614315033 0.05 0.0013148054713383317
83 0.033532898873090744 0.05 0.0012720567174255848
84 0.032985176891088486 0.05 0.0012308410368859768
85 0.03245226666331291 0.05 0.0011913912603631616
86 0.031929392367601395 0.05 0.0011533090146258473
87 0.03141797333955765 0.05 0.00111665902659297
88 0.030916135758161545 0.05 0.001081271329894662
89 0.030427630990743637 0.05 0.0010473710717633367
90 0.02994418516755104 0.05 0.0010143534746021032
91 0.029477154836058617 0.05 0.000982958939857781
92 0.02901562489569187 0.05 0.0009524192428216338
93 0.028561778366565704 0.05 0.0009228578419424593
94 0.0281255841255188 0.05 0.0008948853937909007
95 0.02769104205071926 0.05 0.000867447117343545
96 0.0272701196372509 0.05 0.0008412757888436317
97 0.026852624490857124 0.05 0.0008157137781381607
98 0.02644806168973446 0.05 0.0007913197623565793
99 0.026046307757496834 0.05 0.0007674616063013673
tuning, 0, 0.005651559680700302
tuning, 1, 0.0038241043221205473
tuning, 2, 0.0032410165295004845
tuning, 3, 0.002701344434171915
tuning, 4, 0.002166308928281069
tuning, 5, 0.001743217697367072
tuning, 6, 0.0015059872530400753
tuning, 7, 0.0014130764175206423
tuning, 8, 0.0013424805365502834
tuning, 9, 0.001236979034729302
tuning, 10, 0.001124739064835012
tuning, 11, 0.00106424477417022
tuning, 12, 0.001075024832971394
tuning, 13, 0.0011206881608814
tuning, 14, 0.001143833389505744
tuning, 15, 0.0011093667708337307
tuning, 16, 0.0010258546099066734
tuning, 17, 0.0009271875023841858
tuning, 18, 0.0008457581279799342
tuning, 19, 0.0007912022992968559
tuning, 20, 0.0007526690023951232
tuning, 21, 0.0007203472778201103
tuning, 22, 0.0006921779131516814
tuning, 23, 0.0006712642498314381
tuning, 24, 0.0006592466961592436
tuning, 25, 0.0006532482802867889
tuning, 26, 0.0006449640495702624
tuning, 27, 0.0006302972324192524
tuning, 28, 0.0006090827519074082
tuning, 29, 0.0005860065575689077
tuning, 30, 0.0005661481409333646
tuning, 31, 0.0005514060612767935
tuning, 32, 0.0005396007327362895
tuning, 33, 0.0005271411500871181
tuning, 34, 0.000512407161295414
tuning, 35, 0.0004971145535819232
tuning, 36, 0.00048391963355243206
tuning, 37, 0.00047438632464036345
tuning, 38, 0.0004678652039729059
tuning, 39, 0.00046252948231995106
tuning, 40, 0.0004567525757011026
tuning, 41, 0.00045076635433360934
tuning, 42, 0.00044462954974733293
tuning, 43, 0.00043825185275636613
tuning, 44, 0.00043146725511178374
tuning, 45, 0.0004232879728078842
tuning, 46, 0.00041444459930062294
tuning, 47, 0.0004055914469063282
tuning, 48, 0.00039672618731856346
tuning, 49, 0.0003885615151375532

 10%|███████████████████████████████████▊                                                                                                                                                                                                                                                                                                                                  | 1/10 [00:38<05:45, 38.44s/it]
0, 0.1123598963022232
1, 0.1123598963022232
2, 0.10478769242763519
3, 0.0904693752527237
4, 0.0712454617023468
5, 0.05020032078027725
6, 0.031469427049160004
7, 0.020359082147479057
8, 0.01492476649582386
9, 0.01293870061635971
10, 0.012658610008656979
11, 0.012994235381484032
12, 0.013388263992965221
13, 0.013614840805530548
14, 0.013617269694805145
15, 0.013421791605651379
16, 0.013080473989248276
17, 0.012647261843085289
18, 0.01216978020966053
19, 0.01168505847454071
20, 0.011219583451747894
21, 0.010791043750941753
22, 0.010410790331661701
23, 0.010085268877446651
24, 0.009817618876695633
25, 0.009607691317796707
26, 0.00945253111422062
27, 0.009347168728709221
28, 0.009285072796046734
29, 0.009255554527044296
0 2.8622920513153076 0.05 7.60215425491333
1 2.6969165802001953 0.05 6.7490692138671875
2 2.524670362472534 0.05 5.914502143859863
3 2.3318030834198 0.05 5.0453643798828125
4 2.092303991317749 0.05 4.062171936035156
5 1.7660633325576782 0.05 2.8941521644592285
6 1.3688256740570068 0.05 1.738621711730957
7 1.0126683712005615 0.05 0.951575517654419
8 0.8032127022743225 0.05 0.598645806312561
9 0.6810364723205566 0.05 0.4303774833679199
10 0.5817186236381531 0.05 0.31400370597839355
11 0.49498632550239563 0.05 0.2273501455783844
12 0.42888492345809937 0.05 0.17068302631378174
13 0.3792107105255127 0.05 0.13343508541584015
14 0.3400835692882538 0.05 0.10731987655162811
15 0.30848896503448486 0.05 0.08830556273460388
16 0.28253239393234253 0.05 0.0740705132484436
17 0.26087990403175354 0.05 0.06315242499113083
18 0.2426108419895172 0.05 0.05461718142032623
19 0.22693394124507904 0.05 0.04778677970170975
20 0.21332034468650818 0.05 0.04222536087036133
21 0.20134307444095612 0.05 0.03761683404445648
22 0.19070535898208618 0.05 0.033746957778930664
23 0.18119092285633087 0.05 0.03046363592147827
24 0.17262139916419983 0.05 0.02765018865466118
25 0.16486866772174835 0.05 0.02522232010960579
26 0.15783128142356873 0.05 0.02311505749821663
27 0.1514020711183548 0.05 0.02127023972570896
28 0.14551709592342377 0.05 0.01964883878827095
29 0.14009709656238556 0.05 0.018212392926216125
30 0.1350858509540558 0.05 0.016932792961597443
31 0.1304408460855484 0.05 0.015788324177265167
32 0.126131072640419 0.05 0.014762266539037228
33 0.12210304290056229 0.05 0.013834446668624878
34 0.1183275356888771 0.05 0.012992131523787975
35 0.11479750275611877 0.05 0.012228514067828655
36 0.11146748065948486 0.05 0.011529359966516495
37 0.10832728445529938 0.05 0.01088891364634037
38 0.10534206032752991 0.05 0.01029704138636589
39 0.10253922641277313 0.05 0.00975638534873724
40 0.09987399727106094 0.05 0.009255793876945972
41 0.09733033925294876 0.05 0.008790332823991776
42 0.09490808844566345 0.05 0.008358248509466648
43 0.09260568767786026 0.05 0.007957637310028076
44 0.09039082378149033 0.05 0.007581540383398533
45 0.0882786214351654 0.05 0.007231358904391527
46 0.08625359833240509 0.05 0.006903403904289007
47 0.08430813252925873 0.05 0.006595499813556671
48 0.08244776725769043 0.05 0.006307636387646198
49 0.08065124601125717 0.05 0.0060357460752129555
50 0.07892941683530807 0.05 0.005780781619250774
51 0.07726539671421051 0.05 0.00553960632532835
52 0.0756574273109436 0.05 0.005311436019837856
53 0.07411523908376694 0.05 0.005097107961773872
54 0.07260256260633469 0.05 0.004891169257462025
55 0.07115203887224197 0.05 0.004697680938988924
56 0.06975020468235016 0.05 0.00451439805328846
57 0.0683874636888504 0.05 0.0043397205881774426
58 0.06707233935594559 0.05 0.004174415487796068
59 0.06578388065099716 0.05 0.004015575163066387
60 0.06454142928123474 0.05 0.0038653246592730284
61 0.0633358582854271 0.05 0.0037222718819975853
62 0.06216340884566307 0.05 0.0035857369657605886
63 0.06101876124739647 0.05 0.0034549010451883078
64 0.05990621820092201 0.05 0.003330064471811056
65 0.05883764103055 0.05 0.0032123238779604435
66 0.05778951942920685 0.05 0.003098895773291588
67 0.056764423847198486 0.05 0.0029899319633841515
68 0.055771030485630035 0.05 0.0028861984610557556
69 0.054805826395750046 0.05 0.0027871625497937202
70 0.0538528673350811 0.05 0.0026910793967545033
71 0.05294248089194298 0.05 0.002600862178951502
72 0.052046872675418854 0.05 0.002513610990718007
73 0.05116621032357216 0.05 0.002429267391562462
74 0.05031836777925491 0.05 0.002349426504224539
75 0.04948285594582558 0.05 0.002272052224725485
76 0.04866892099380493 0.05 0.0021979217417538166
77 0.047882165759801865 0.05 0.0021274357568472624
78 0.04710007831454277 0.05 0.0020585055463016033
79 0.0463535450398922 0.05 0.0019937686156481504
80 0.04560571908950806 0.05 0.0019299560226500034
81 0.04488462954759598 0.05 0.0018694077152758837
82 0.04418585076928139 0.05 0.0018116538412868977
83 0.04348672553896904 0.05 0.001754778204485774
84 0.04281467944383621 0.05 0.0017009602161124349
85 0.04215503856539726 0.05 0.0016489510890096426
86 0.041508983820676804 0.05 0.0015987957594916224
87 0.04087211936712265 0.05 0.0015501121524721384
88 0.04025619477033615 0.05 0.0015037450939416885
89 0.039650678634643555 0.05 0.0014588480116799474
90 0.03906030207872391 0.05 0.0014157285913825035
91 0.03848019987344742 0.05 0.0013739896239712834
92 0.037913281470537186 0.05 0.00133380270563066
93 0.037355147302150726 0.05 0.0012948212679475546
94 0.03680673614144325 0.05 0.001257081632502377
95 0.036273762583732605 0.05 0.001220939215272665
96 0.03575814887881279 0.05 0.0011864756233990192
97 0.03524136543273926 0.05 0.0011524292640388012
98 0.03474048152565956 0.05 0.001119903172366321
99 0.03424740210175514 0.05 0.0010883387876674533
tuning, 0, 0.00921760406345129
tuning, 1, 0.006114407442510128
tuning, 2, 0.004943658597767353
tuning, 3, 0.0047289542853832245
tuning, 4, 0.0046558622270822525
tuning, 5, 0.00445808470249176
tuning, 6, 0.004164594225585461
tuning, 7, 0.003864634782075882
tuning, 8, 0.0036223791539669037
tuning, 9, 0.0034578375052660704
tuning, 10, 0.0033559626899659634
tuning, 11, 0.0032782666385173798
tuning, 12, 0.003198344260454178
tuning, 13, 0.0031191720627248287
tuning, 14, 0.0030520856380462646
tuning, 15, 0.0029943198896944523
tuning, 16, 0.0029343022033572197
tuning, 17, 0.002859709784388542
tuning, 18, 0.0027729279827326536
tuning, 19, 0.0026937497314065695
tuning, 20, 0.0026422087103128433
tuning, 21, 0.0026236879639327526
tuning, 22, 0.002620931714773178
tuning, 23, 0.0025991667062044144
tuning, 24, 0.002534352010115981
tuning, 25, 0.002432109322398901
tuning, 26, 0.0023318766616284847
tuning, 27, 0.002265476156026125
tuning, 28, 0.002238333225250244
tuning, 29, 0.0022300449199974537
tuning, 30, 0.00221814401447773
tuning, 31, 0.0021914569661021233
tuning, 32, 0.002147833351045847
tuning, 33, 0.002092518610879779
tuning, 34, 0.0020340222399681807
tuning, 35, 0.001979292370378971
tuning, 36, 0.0019356039119884372
tuning, 37, 0.0019079705234616995
tuning, 38, 0.001896512578241527
tuning, 39, 0.001895582303404808
tuning, 40, 0.0018951522652059793
tuning, 41, 0.0018851784989237785
tuning, 42, 0.0018574869027361274
tuning, 43, 0.0018120910972356796
tuning, 44, 0.0017547204624861479
tuning, 45, 0.001698581501841545
tuning, 46, 0.00165560282766819
tuning, 47, 0.0016295993700623512
tuning, 48, 0.0016150552546605468
tuning, 49, 0.0016014401335269213

 20%|███████████████████████████████████████████████████████████████████████▌                                                                                                                                                                                                                                                                                              | 2/10 [01:16<05:05, 38.24s/it]
0, 0.09775816649198532
1, 0.09775816649198532
2, 0.0926150307059288
3, 0.08272561430931091
4, 0.06901417672634125
5, 0.053106632083654404
6, 0.037517767399549484
7, 0.026828689500689507
8, 0.020238570868968964
9, 0.016378644853830338
10, 0.014047585427761078
11, 0.012472912669181824
12, 0.01124480925500393
13, 0.01018324214965105
14, 0.00922717060893774
15, 0.008365457877516747
16, 0.007599266245961189
17, 0.006929033435881138
18, 0.006351242773234844
19, 0.005858860909938812
20, 0.00544433668255806
21, 0.00509983254596591
22, 0.004817689768970013
23, 0.004591260105371475
24, 0.004414449445903301
25, 0.004281211644411087
26, 0.004185992293059826
27, 0.004123231396079063
28, 0.004086592234671116
29, 0.004069802351295948
0 2.7382824420928955 0.05 8.710748672485352
1 2.575263738632202 0.05 7.704463005065918
2 2.4098122119903564 0.05 6.746295928955078
3 2.1957855224609375 0.05 5.601170539855957
4 1.8230836391448975 0.05 3.861109733581543
5 1.3682069778442383 0.05 2.174715995788574
6 0.967625617980957 0.05 1.0877113342285156
7 0.7062957286834717 0.05 0.5795248746871948
8 0.5531825423240662 0.05 0.35549691319465637
9 0.46311450004577637 0.05 0.24915850162506104
10 0.40208351612091064 0.05 0.18781551718711853
11 0.35691437125205994 0.05 0.1479881852865219
12 0.3217518627643585 0.05 0.12026549875736237
13 0.2932400107383728 0.05 0.09989537298679352
14 0.26939857006073 0.05 0.08431202918291092
15 0.2492142617702484 0.05 0.07215139269828796
16 0.2320856750011444 0.05 0.06257424503564835
17 0.21742422878742218 0.05 0.054918017238378525
18 0.20476898550987244 0.05 0.048711031675338745
19 0.19373930990695953 0.05 0.043604813516139984
20 0.184047132730484 0.05 0.03935111314058304
21 0.17543940246105194 0.05 0.03575635701417923
22 0.16773244738578796 0.05 0.0326838456094265
23 0.1607568860054016 0.05 0.030021898448467255
24 0.15440364181995392 0.05 0.027695808559656143
25 0.1485743671655655 0.05 0.025644060224294662
26 0.14321568608283997 0.05 0.02382759377360344
27 0.13825571537017822 0.05 0.022205734625458717
28 0.13365982472896576 0.05 0.020753949880599976
29 0.12937548756599426 0.05 0.019444778561592102
30 0.12535372376441956 0.05 0.01825464516878128
31 0.12158230692148209 0.05 0.017172744497656822
32 0.11802946031093597 0.05 0.016183774918317795
33 0.11466949433088303 0.05 0.01527547650039196
34 0.11147940903902054 0.05 0.014437375590205193
35 0.10844909399747849 0.05 0.013663150370121002
36 0.10555711388587952 0.05 0.012944163754582405
37 0.1028081476688385 0.05 0.012278747744858265
38 0.10017203539609909 0.05 0.011657139286398888
39 0.09765242785215378 0.05 0.011078094132244587
40 0.09523670375347137 0.05 0.01053677313029766
41 0.09291438013315201 0.05 0.01002916693687439
42 0.09068933874368668 0.05 0.009554576128721237
43 0.08855058252811432 0.05 0.00910923257470131
44 0.08649443089962006 0.05 0.008691109716892242
45 0.08451107144355774 0.05 0.008297096937894821
46 0.08260873705148697 0.05 0.007927767932415009
47 0.08077146112918854 0.05 0.007579051423817873
48 0.07899438589811325 0.05 0.007249222137033939
49 0.0772656798362732 0.05 0.006935412064194679
50 0.07560743391513824 0.05 0.006640916224569082
51 0.07399994879961014 0.05 0.006361532956361771
52 0.0724470242857933 0.05 0.006097335368394852
53 0.07093290239572525 0.05 0.005845132749527693
54 0.06946699321269989 0.05 0.005606037564575672
55 0.0680343434214592 0.05 0.005377189256250858
56 0.06666402518749237 0.05 0.0051627615466713905
57 0.0653005912899971 0.05 0.004953739698976278
58 0.06399805843830109 0.05 0.004758089315146208
59 0.0627102181315422 0.05 0.004568520467728376
60 0.061467915773391724 0.05 0.004389306530356407
61 0.0602613165974617 0.05 0.004218676593154669
62 0.05909183993935585 0.05 0.004056523088365793
63 0.057943250983953476 0.05 0.0039003596175462008
64 0.056842681020498276 0.05 0.0037536004092544317
65 0.05576566234230995 0.05 0.0036127062048763037
66 0.05470903217792511 0.05 0.0034770991187542677
67 0.053680986166000366 0.05 0.003347648773342371
68 0.052718836814165115 0.05 0.0032287221401929855
69 0.05173226445913315 0.05 0.0031090083066374063
70 0.050810884684324265 0.05 0.0029992484487593174
71 0.04989094287157059 0.05 0.00289162783883512
72 0.0490218847990036 0.05 0.002791765844449401
