
  0%|                                                                                                                                                                                                                                                                                            | 0/10 [00:00<?, ?it/s]
0, 0.1364392638206482
1, 0.1364392638206482
2, 0.1297924965620041
3, 0.11694806814193726
4, 0.09893614053726196
5, 0.07756023854017258
6, 0.05549612641334534
7, 0.038775376975536346
8, 0.02705346792936325
9, 0.019503142684698105
10, 0.01505354605615139
11, 0.012652745470404625
12, 0.011451756581664085
13, 0.010858533903956413
14, 0.010505801998078823
15, 0.01018841378390789
16, 0.009807692840695381
17, 0.009330950677394867
18, 0.008769325911998749
19, 0.008149915374815464
20, 0.007504141889512539
21, 0.006861354224383831
22, 0.006248282268643379
23, 0.00568602979183197
24, 0.0051884157583117485
25, 0.004759807139635086
26, 0.004398275166749954
27, 0.004098385106772184
28, 0.003850433509796858
29, 0.0036444440484046936
30, 0.0034696944057941437
31, 0.00331667996942997
32, 0.00317756156437099
33, 0.003046311205253005
34, 0.0029191633220762014
35, 0.0027932170778512955
36, 0.002668130211532116
37, 0.0025436701253056526
38, 0.0024207148235291243
39, 0.002300610765814781
40, 0.0021846068557351828
41, 0.0020737573504447937
42, 0.001969227334484458
43, 0.0018715731566771865
44, 0.0017812596634030342
45, 0.0016985225956887007
46, 0.001623072661459446
47, 0.0015547983348369598
48, 0.0014931175392121077
49, 0.0014375017490237951
50, 0.0013876024167984724
51, 0.0013426661025732756
52, 0.0013022986240684986
53, 0.0012659558560699224
54, 0.0012332572368904948
55, 0.0012036957778036594
56, 0.0011771259596571326
57, 0.0011531462660059333
58, 0.0011315497104078531
59, 0.0011121316347271204
60, 0.0010946460533887148
61, 0.0010790614178404212
62, 0.0010650872718542814
63, 0.0010527038248255849
64, 0.0010417778976261616
65, 0.0010320700239390135
66, 0.001023593358695507
67, 0.0010163866681978106
68, 0.0010100407525897026
69, 0.00100468541495502
70, 0.0010002300841733813
71, 0.0009965365752577782
72, 0.0009935557609423995
73, 0.000991173437796533
74, 0.0009893628302961588
75, 0.00098801264539361
76, 0.0009870481444522738
77, 0.0009864745661616325
78, 0.0009861531434580684
79, 0.0009859981946647167
0 2.422027826309204 0.05 7.585529327392578
1 2.2591233253479004 0.05 6.599445343017578
2 2.0892395973205566 0.05 5.644222259521484
3 1.8915324211120605 0.05 4.626527786254883
4 1.6152150630950928 0.05 3.37355899810791
5 1.2372642755508423 0.05 1.9794865846633911
6 0.8264349102973938 0.05 0.8831713795661926
7 0.5805186629295349 0.05 0.4357726573944092
8 0.47350654006004333 0.05 0.28992098569869995
9 0.39312925934791565 0.05 0.19984734058380127
10 0.3385161757469177 0.05 0.14817894995212555
11 0.29696235060691833 0.05 0.11403296142816544
12 0.26512405276298523 0.05 0.09089203178882599
13 0.23997342586517334 0.05 0.07446528971195221
14 0.21950851380825043 0.05 0.06230607256293297
15 0.2025708705186844 0.05 0.05306175351142883
16 0.18834391236305237 0.05 0.04587021470069885
17 0.17622242867946625 0.05 0.040155958384275436
18 0.16574665904045105 0.05 0.03552361577749252
19 0.15657749772071838 0.05 0.03170197457075119
20 0.14845922589302063 0.05 0.02849981188774109
21 0.14118970930576324 0.05 0.025777075439691544
22 0.1346302330493927 0.05 0.023437583819031715
23 0.12868842482566833 0.05 0.021414434537291527
24 0.1232527568936348 0.05 0.019643589854240417
25 0.11828933656215668 0.05 0.018093345686793327
26 0.11371318995952606 0.05 0.016720503568649292
27 0.10950122028589249 0.05 0.015504778362810612
28 0.10559292882680893 0.05 0.014417742379009724
29 0.10195858776569366 0.05 0.013442352414131165
30 0.09857664257287979 0.05 0.012565379962325096
31 0.09540195018053055 0.05 0.011769069358706474
32 0.0924266129732132 0.05 0.011046424508094788
33 0.08962145447731018 0.05 0.01038607768714428
34 0.08697301149368286 0.05 0.009781301021575928
35 0.08445452153682709 0.05 0.009223027154803276
36 0.08207721263170242 0.05 0.00871109589934349
37 0.07980471849441528 0.05 0.008235402405261993
38 0.07764178514480591 0.05 0.007795044220983982
39 0.07557746767997742 0.05 0.0073860506527125835
40 0.07359686493873596 0.05 0.00700400210916996
41 0.07169077545404434 0.05 0.006645906716585159
42 0.06987150758504868 0.05 0.0063128843903541565
43 0.0681205466389656 0.05 0.006000450812280178
44 0.06643225252628326 0.05 0.0057067060843110085
45 0.06481176614761353 0.05 0.005431694444268942
46 0.06323955953121185 0.05 0.005171366035938263
47 0.06173707917332649 0.05 0.004928557202219963
48 0.060270439833402634 0.05 0.004697171039879322
49 0.058865927159786224 0.05 0.004480800591409206
50 0.05749841779470444 0.05 0.004275032319128513
51 0.056190021336078644 0.05 0.0040826862677931786
52 0.05491034314036369 0.05 0.0038988448213785887
53 0.05367884784936905 0.05 0.00372592406347394
54 0.05247931927442551 0.05 0.003561262506991625
55 0.051323872059583664 0.05 0.0034061712212860584
56 0.05019821226596832 0.05 0.003258397802710533
57 0.04910726472735405 0.05 0.00311830872669816
58 0.04805193841457367 0.05 0.0029857223853468895
59 0.04702359810471535 0.05 0.0028592979069799185
60 0.04602857679128647 0.05 0.0027395719662308693
61 0.045061010867357254 0.05 0.002625605557113886
62 0.04412206634879112 0.05 0.00251732487231493
63 0.04321040213108063 0.05 0.002414372283965349
64 0.042316362261772156 0.05 0.0023154972586780787
65 0.04145737737417221 0.05 0.002222446259111166
66 0.04061824083328247 0.05 0.0021333880722522736
67 0.03980402275919914 0.05 0.0020487147849053144
68 0.03901107236742973 0.05 0.0019679018296301365
69 0.038233090192079544 0.05 0.001890194253064692
70 0.03747904673218727 0.05 0.0018163715722039342
71 0.03675412759184837 0.05 0.0017467865254729986
72 0.03603735938668251 0.05 0.001679320354014635
73 0.035343099385499954 0.05 0.001615239423699677
74 0.03466732054948807 0.05 0.0015540614258497953
75 0.034011416137218475 0.05 0.001495812088251114
76 0.033372730016708374 0.05 0.0014401611406356096
77 0.032744150608778 0.05 0.001386420801281929
78 0.03213532269001007 0.05 0.001335343113169074
79 0.031536765396595 0.05 0.001286062179133296
80 0.030963348224759102 0.05 0.0012397196842357516
81 0.030397115275263786 0.05 0.0011947922175750136
82 0.029846619814634323 0.05 0.0011519084218889475
83 0.029312707483768463 0.05 0.001111065037548542
84 0.02878725901246071 0.05 0.0010715890675783157
85 0.028273560106754303 0.05 0.001033686101436615
86 0.027769800275564194 0.05 0.0009971789550036192
87 0.02728784829378128 0.05 0.0009628667030483484
88 0.02681102231144905 0.05 0.0009295106865465641
89 0.026346486061811447 0.05 0.0008975797099992633
90 0.025891156867146492 0.05 0.0008668232476338744
91 0.02544902078807354 0.05 0.000837470986880362
92 0.025015849620103836 0.05 0.0008092042990028858
93 0.02459063194692135 0.05 0.0007819284219294786
94 0.02417587675154209 0.05 0.000755774206481874
95 0.023776743561029434 0.05 0.0007310251821763813
96 0.02338072471320629 0.05 0.0007068765116855502
97 0.022995444014668465 0.05 0.000683771853800863
98 0.022620199248194695 0.05 0.0006616380997002125
99 0.02224857732653618 0.05 0.0006400769343599677
tuning, 0, 0.0010004483629018068
tuning, 1, 0.0009106846409849823
tuning, 2, 0.0007916152244433761
tuning, 3, 0.0007467805407941341
tuning, 4, 0.0007122984970919788
tuning, 5, 0.0006942666950635612
tuning, 6, 0.000658844131976366
tuning, 7, 0.00062841537874192
tuning, 8, 0.0005988291813991964
tuning, 9, 0.0005760421045124531
tuning, 10, 0.0005620308802463114
tuning, 11, 0.0005464366404339671
tuning, 12, 0.0005346247926354408
tuning, 13, 0.00052410620264709
tuning, 14, 0.0005025927675887942
tuning, 15, 0.0004786645295098424
tuning, 16, 0.00046569289406761527
tuning, 17, 0.00045459182001650333
tuning, 18, 0.00044067256385460496
tuning, 19, 0.0004323378670960665
tuning, 20, 0.00042549677891656756
tuning, 21, 0.0004127377178519964
tuning, 22, 0.000402598874643445
tuning, 23, 0.0003973622224293649
tuning, 24, 0.00038998256786726415
tuning, 25, 0.00037967340904287994
tuning, 26, 0.00037048407830297947
tuning, 27, 0.0003627353289630264
tuning, 28, 0.0003563383361324668
tuning, 29, 0.00034947716630995274
tuning, 30, 0.0003420887514948845
tuning, 31, 0.00033605677890591323
tuning, 32, 0.00033060795976780355
tuning, 33, 0.00032514374470338225
tuning, 34, 0.000319671438774094
tuning, 35, 0.0003141182824037969
tuning, 36, 0.00030901742866262794
tuning, 37, 0.00030450907070189714
tuning, 38, 0.0003012663219124079
tuning, 39, 0.00029895477928221226
tuning, 40, 0.00029350296244956553
tuning, 41, 0.00028694322099909186
tuning, 42, 0.0002832578029483557
tuning, 43, 0.00027945300098508596
tuning, 44, 0.00027435561059974134
tuning, 45, 0.00027053250232711434
tuning, 46, 0.0002669842215254903
tuning, 47, 0.00026322988560423255
tuning, 48, 0.00025977432960644364
tuning, 49, 0.000256167259067297
tuning, 50, 0.00025302235735580325
tuning, 51, 0.0002504877920728177
tuning, 52, 0.00024790287716314197
tuning, 53, 0.0002444156270939857
tuning, 54, 0.00024072648375295103
tuning, 55, 0.00023762948694638908
tuning, 56, 0.00023466019774787128
tuning, 57, 0.0002316648606210947
tuning, 58, 0.00022908777464181185
tuning, 59, 0.00022663100389763713
tuning, 60, 0.00022392813116312027
tuning, 61, 0.00022130875731818378
tuning, 62, 0.000218436325667426
tuning, 63, 0.00021607475355267525
tuning, 64, 0.0002139866555808112
tuning, 65, 0.00021135242423042655
tuning, 66, 0.00020876439521089196
tuning, 67, 0.00020627360208891332
tuning, 68, 0.0002038561215158552
tuning, 69, 0.00020168020273558795
tuning, 70, 0.00019942442304454744
tuning, 71, 0.0001972094178199768
tuning, 72, 0.00019509971025399864
tuning, 73, 0.00019287636678200215
tuning, 74, 0.0001907002879306674
tuning, 75, 0.00018862102297134697
tuning, 76, 0.00018651329446583986
tuning, 77, 0.0001845108054112643
tuning, 78, 0.00018255172471981496
tuning, 79, 0.00018062873277813196
tuning, 80, 0.00017876438505481929
tuning, 81, 0.00017678222502581775
tuning, 82, 0.00017492797633167356
tuning, 83, 0.0001731065276544541
tuning, 84, 0.0001712322555249557
tuning, 85, 0.00016941034118644893
tuning, 86, 0.00016757729463279247
tuning, 87, 0.00016586054698564112
tuning, 88, 0.0001640596310608089
tuning, 89, 0.00016237776435445994
tuning, 90, 0.00016070413403213024
tuning, 91, 0.00015904562314972281
tuning, 92, 0.00015739139053039253
tuning, 93, 0.00015576269652228802
tuning, 94, 0.0001541997626191005
tuning, 95, 0.00015261286171153188
tuning, 96, 0.0001510506117483601
tuning, 97, 0.00014952762285247445
tuning, 98, 0.00014798776828683913
tuning, 99, 0.0001465151581214741
tuning, 100, 0.00014503896818496287
tuning, 101, 0.000143609126098454
tuning, 102, 0.00014212893438525498
tuning, 103, 0.00014073529746383429
tuning, 104, 0.00013933810987509787
tuning, 105, 0.00013797151041217148
tuning, 106, 0.00013659923570230603
tuning, 107, 0.0001352822728222236
tuning, 108, 0.00013392037362791598
tuning, 109, 0.00013258290709927678
tuning, 110, 0.00013126539124641567
tuning, 111, 0.00012997028534300625
tuning, 112, 0.0001286863989662379
tuning, 113, 0.0001274176174774766
tuning, 114, 0.00012611830607056618
tuning, 115, 0.00012485393381211907
tuning, 116, 0.0001235845556948334
tuning, 117, 0.00012237649934832007
tuning, 118, 0.00012111935939174145
tuning, 119, 0.00011992576764896512
tuning, 120, 0.00011869199079228565
tuning, 121, 0.00011749358964152634
tuning, 122, 0.0001163320557679981
tuning, 123, 0.00011517801613081247
tuning, 124, 0.00011402607196941972
tuning, 125, 0.00011287218512734398
tuning, 126, 0.00011171504593221471
tuning, 127, 0.00011056480434490368
tuning, 128, 0.00010945642134174705
tuning, 129, 0.00010833437409019098
tuning, 130, 0.00010720638965722173
tuning, 131, 0.0001061243747244589
tuning, 132, 0.00010503553494345397
tuning, 133, 0.00010397456208011135
tuning, 134, 0.00010287533223163337
tuning, 135, 0.00010183791164308786
tuning, 136, 0.00010075255704578012
tuning, 137, 9.970611426979303e-05
tuning, 138, 9.866834443528205e-05
tuning, 139, 9.760027751326561e-05
tuning, 140, 9.653643792262301e-05
tuning, 141, 9.549966489430517e-05
tuning, 142, 9.447065531276166e-05
tuning, 143, 9.343505371361971e-05
tuning, 144, 9.24334890441969e-05
tuning, 145, 9.143634815700352e-05
tuning, 146, 9.038051211973652e-05
tuning, 147, 8.937963866628706e-05
tuning, 148, 8.840838563628495e-05
tuning, 149, 8.738574979361147e-05
tuning, 150, 8.637644350528717e-05
tuning, 151, 8.542148862034082e-05
tuning, 152, 8.436663483735174e-05
tuning, 153, 8.340414933627471e-05
tuning, 154, 8.251110557466745e-05
tuning, 155, 8.14933082438074e-05
tuning, 156, 8.05625895736739e-05
tuning, 157, 7.964089309098199e-05
tuning, 158, 7.874167204136029e-05
tuning, 159, 7.787468348396942e-05
tuning, 160, 7.691029168199748e-05
tuning, 161, 7.609819294884801e-05
tuning, 162, 7.514844764955342e-05
tuning, 163, 7.431290578097105e-05
tuning, 164, 7.344019104493782e-05
tuning, 165, 7.255787204485387e-05
tuning, 166, 7.172991172410548e-05
tuning, 167, 7.090708095347509e-05
tuning, 168, 7.013398862909526e-05
tuning, 169, 6.929704977665097e-05
tuning, 170, 6.853016384411603e-05
tuning, 171, 6.771110201952979e-05
tuning, 172, 6.692473107250407e-05
tuning, 173, 6.614846643060446e-05
tuning, 174, 6.530235259560868e-05
tuning, 175, 6.450034561567008e-05
tuning, 176, 6.373807991622016e-05
tuning, 177, 6.294576451182365e-05
tuning, 178, 6.215431494638324e-05
tuning, 179, 6.131931149866432e-05
tuning, 180, 6.0546833992702886e-05
tuning, 181, 5.968760160612874e-05
tuning, 182, 5.8901125157717615e-05
tuning, 183, 5.809020876768045e-05
tuning, 184, 5.739592597819865e-05
tuning, 185, 5.6699325796216726e-05
tuning, 186, 5.5871420045150444e-05
tuning, 187, 5.517148383660242e-05
tuning, 188, 5.443958070827648e-05
tuning, 189, 5.378056084737182e-05
tuning, 190, 5.310861160978675e-05
tuning, 191, 5.2564046200132e-05
tuning, 192, 5.175193655304611e-05
tuning, 193, 5.131408033776097e-05
tuning, 194, 5.061104820924811e-05
tuning, 195, 4.9885005864780396e-05
tuning, 196, 4.940128928865306e-05
tuning, 197, 4.864452057518065e-05
tuning, 198, 4.823497147299349e-05
tuning, 199, 4.7880788770271465e-05
tuning, 200, 4.6949582610977814e-05
tuning, 201, 4.681350401369855e-05
tuning, 202, 4.591498873196542e-05
tuning, 203, 4.543051909422502e-05
tuning, 204, 4.583635018207133e-05
tuning, 205, 4.472323780646548e-05
tuning, 206, 4.449005064088851e-05
tuning, 207, 4.499481292441487e-05
tuning, 208, 4.326350972405635e-05
tuning, 209, 4.745821206597611e-05
tuning, 210, 5.222322579356842e-05
tuning, 211, 5.228021473158151e-05
tuning, 212, 5.5991968110902235e-05
tuning, 213, 5.53637946723029e-05
tuning, 214, 6.443406164180487e-05
tuning, 215, 8.110640192171559e-05
tuning, 216, 5.772763324785046e-05
tuning, 217, 4.740814620163292e-05
tuning, 218, 5.5062973842723295e-05
tuning, 219, 4.908013215754181e-05
tuning, 220, 5.7915702200261876e-05
tuning, 221, 4.212552448734641e-05
tuning, 222, 6.0449354350566864e-05
tuning, 223, 4.668961264542304e-05
tuning, 224, 5.494747165357694e-05
tuning, 225, 7.567246211692691e-05
tuning, 226, 4.359451122581959e-05
tuning, 227, 6.68397406116128e-05
tuning, 228, 4.5606575440615416e-05
tuning, 229, 6.167138781165704e-05
tuning, 230, 4.379740130389109e-05
tuning, 231, 6.120526813901961e-05
tuning, 232, 5.336530375643633e-05
tuning, 233, 5.8010173233924434e-05
tuning, 234, 7.202303822850809e-05
tuning, 235, 4.673525836551562e-05
tuning, 236, 7.295738760149106e-05
tuning, 237, 4.191999323666096e-05
tuning, 238, 7.47980666346848e-05
tuning, 239, 3.837171971099451e-05
tuning, 240, 7.731065852567554e-05
tuning, 241, 3.543870116118342e-05
tuning, 242, 8.600870933150873e-05
tuning, 243, 3.89304623240605e-05
tuning, 244, 8.086737216217443e-05
tuning, 245, 3.6803925468120724e-05
tuning, 246, 7.739499415038154e-05
tuning, 247, 3.651046063168906e-05
tuning, 248, 7.795651617925614e-05
tuning, 249, 3.421652945689857e-05
tuning, 250, 8.077975508058444e-05
tuning, 251, 3.6733887100126594e-05
tuning, 252, 7.554457988590002e-05
tuning, 253, 3.3756929042283446e-05
tuning, 254, 7.29357561795041e-05
tuning, 255, 3.275030758231878e-05
tuning, 256, 7.49559112591669e-05
tuning, 257, 3.0015769880264997e-05
tuning, 258, 7.729913340881467e-05
tuning, 259, 3.159343759762123e-05
tuning, 260, 7.350475061684847e-05
tuning, 261, 2.9064289265079424e-05
tuning, 262, 7.175186328822747e-05
tuning, 263, 3.0187975426088087e-05
tuning, 264, 6.923913315404207e-05
tuning, 265, 2.9699120204895735e-05
tuning, 266, 6.904925976414233e-05
tuning, 267, 3.078866211581044e-05
tuning, 268, 6.682058301521465e-05
tuning, 269, 3.123591159237549e-05
tuning, 270, 6.369694892782718e-05
tuning, 271, 3.3697586331982166e-05
tuning, 272, 5.7882629334926605e-05
tuning, 273, 3.508042573230341e-05
tuning, 274, 5.7297897001262754e-05
tuning, 275, 3.7138066545594484e-05
tuning, 276, 5.4191332310438156e-05
tuning, 277, 4.2551524529699236e-05
tuning, 278, 4.9344293074682355e-05
tuning, 279, 4.437167081050575e-05
tuning, 280, 4.479232302401215e-05
tuning, 281, 4.8553436499787495e-05
tuning, 282, 4.250042184139602e-05
tuning, 283, 5.159261490916833e-05
tuning, 284, 3.885634578182362e-05
tuning, 285, 5.556968244491145e-05
tuning, 286, 3.334473512950353e-05
tuning, 287, 5.5564796639373526e-05
tuning, 288, 3.256326453993097e-05
tuning, 289, 5.9981743106618524e-05
tuning, 290, 3.0028173569007777e-05
tuning, 291, 6.130211113486439e-05
tuning, 292, 3.0255047022365034e-05
tuning, 293, 6.513629341498017e-05
tuning, 294, 2.7727646738640033e-05
tuning, 295, 6.427407788578421e-05
tuning, 296, 3.153035504510626e-05
tuning, 297, 6.268125434871763e-05
tuning, 298, 3.201824438292533e-05
tuning, 299, 6.405313615687191e-05
tuning, 300, 3.645989272627048e-05
tuning, 301, 6.17617552052252e-05
tuning, 302, 4.015489685116336e-05
tuning, 303, 5.920793046243489e-05
tuning, 304, 4.5325024984776974e-05
tuning, 305, 5.246282307780348e-05
tuning, 306, 5.178080027690157e-05
tuning, 307, 4.975853516953066e-05
tuning, 308, 5.4913340136408806e-05
tuning, 309, 4.748451101477258e-05
tuning, 310, 6.46119806333445e-05
tuning, 311, 4.1715196857694536e-05
tuning, 312, 6.617467442993075e-05
tuning, 313, 4.061384606757201e-05
tuning, 314, 6.953726551728323e-05
tuning, 315, 3.689410368679091e-05
tuning, 316, 7.208481838461012e-05
tuning, 317, 4.108816938241944e-05
tuning, 318, 7.14055058779195e-05
tuning, 319, 4.223157884553075e-05
tuning, 320, 7.121974340407178e-05
tuning, 321, 4.875556260230951e-05
tuning, 322, 6.307349394774064e-05
tuning, 323, 5.576534749707207e-05
tuning, 324, 5.700621841242537e-05
tuning, 325, 6.125939398771152e-05
tuning, 326, 5.024596975999884e-05
tuning, 327, 7.114730397006497e-05
tuning, 328, 4.040607382194139e-05
tuning, 329, 8.046638686209917e-05
tuning, 330, 4.07059196732007e-05
tuning, 331, 7.921911310404539e-05
tuning, 332, 3.899793955497444e-05
tuning, 333, 7.543996616732329e-05
tuning, 334, 4.564874689094722e-05
tuning, 335, 6.358136306516826e-05
tuning, 336, 5.7347257097717375e-05
tuning, 337, 4.8909230827121064e-05
tuning, 338, 6.537082663271576e-05
tuning, 339, 3.850588473142125e-05
tuning, 340, 7.463527435902506e-05
tuning, 341, 3.0188251912477426e-05
tuning, 342, 7.816938159521669e-05
tuning, 343, 3.368709440110251e-05
tuning, 344, 6.504211341962218e-05
tuning, 345, 4.55582448921632e-05
tuning, 346, 4.7327477659564465e-05
tuning, 347, 5.9338104620110244e-05
tuning, 348, 3.45193111570552e-05
tuning, 349, 6.798517279094085e-05
tuning, 350, 2.4185075744753703e-05
tuning, 351, 6.92492030793801e-05
tuning, 352, 2.6864501705858856e-05
tuning, 353, 5.8112258557230234e-05
tuning, 354, 3.864994869218208e-05
tuning, 355, 4.056096076965332e-05
tuning, 356, 5.22006448591128e-05
tuning, 357, 2.6445295588928275e-05
tuning, 358, 6.198792107170448e-05
tuning, 359, 1.8500648366170935e-05
tuning, 360, 6.191135616973042e-05
tuning, 361, 2.226027390861418e-05
tuning, 362, 4.890920172329061e-05
tuning, 363, 3.475032281130552e-05
tuning, 364, 3.19480495818425e-05
