
  0%|                                                                                                                                                                                                                                                                                            | 0/10 [00:00<?, ?it/s]
0, 0.1364392638206482
1, 0.1364392638206482
2, 0.12979236245155334
3, 0.1169482097029686
4, 0.09893619269132614
5, 0.07756026089191437
6, 0.055496178567409515
7, 0.03879803046584129
8, 0.02712932787835598
9, 0.019633209332823753
10, 0.015203665941953659
11, 0.012774917297065258
12, 0.01150391437113285
13, 0.010817302390933037
14, 0.01036769524216652
15, 0.009970001876354218
16, 0.00953973364084959
17, 0.009050237014889717
18, 0.008509164676070213
19, 0.007937409915030003
20, 0.00736119132488966
21, 0.00680170115083456
22, 0.00627440121024847
23, 0.005790203344076872
24, 0.005354445427656174
25, 0.004968896508216858
26, 0.004632910713553429
27, 0.00434348126873374
28, 0.00409728055819869
29, 0.003889726474881172
30, 0.0037166974507272243
31, 0.0035741254687309265
32, 0.003458911320194602
33, 0.0033677704632282257
34, 0.0032968856394290924
35, 0.0032445143442600965
36, 0.0032076314091682434
37, 0.003183686174452305
38, 0.0031699861865490675
39, 0.0031637605279684067
0 2.4825656414031982 0.05 7.451690196990967
1 2.316715955734253 0.05 6.489315986633301
2 2.1407244205474854 0.05 5.540830135345459
3 1.9260532855987549 0.05 4.485284328460693
4 1.6242647171020508 0.05 3.189826011657715
5 1.2640303373336792 0.05 1.9318275451660156
6 0.8884211778640747 0.05 0.9543136954307556
7 0.6221394538879395 0.05 0.46798157691955566
8 0.4895423650741577 0.05 0.28975701332092285
9 0.403270959854126 0.05 0.1966288536787033
10 0.34795013070106506 0.05 0.14638188481330872
11 0.3061799108982086 0.05 0.1133461445569992
12 0.27154120802879333 0.05 0.08915069699287415
13 0.24426110088825226 0.05 0.07213763892650604
14 0.22240780293941498 0.05 0.0598071850836277
15 0.20452608168125153 0.05 0.05057673156261444
16 0.18974122405052185 0.05 0.04352880269289017
17 0.1772679090499878 0.05 0.03799387067556381
18 0.16655828058719635 0.05 0.03354175388813019
19 0.15721364319324493 0.05 0.02988365851342678
20 0.14897650480270386 0.05 0.026834212243556976
21 0.14166422188282013 0.05 0.024264631792902946
22 0.13514450192451477 0.05 0.02208259329199791
23 0.12927298247814178 0.05 0.02020546793937683
24 0.12393395602703094 0.05 0.01857094094157219
25 0.11908148974180222 0.05 0.017145171761512756
26 0.11462067812681198 0.05 0.015884708613157272
27 0.11052044481039047 0.05 0.014768574386835098
28 0.10671038180589676 0.05 0.013767868280410767
29 0.10316429287195206 0.05 0.012868032790720463
30 0.09986450523138046 0.05 0.012058009393513203
31 0.09676054865121841 0.05 0.011320091784000397
32 0.09384503960609436 0.05 0.010648194700479507
33 0.09109310060739517 0.05 0.01003284938633442
34 0.0885004922747612 0.05 0.009469883516430855
35 0.08602982759475708 0.05 0.008948523551225662
36 0.08368498086929321 0.05 0.00846736691892147
37 0.0814455971121788 0.05 0.00802026130259037
38 0.07931581139564514 0.05 0.0076062907464802265
39 0.07728461176156998 0.05 0.007221698295325041
40 0.07533366233110428 0.05 0.006861696019768715
41 0.07346489280462265 0.05 0.0065254890359938145
42 0.07166960835456848 0.05 0.006210454739630222
43 0.06994419544935226 0.05 0.005915026180446148
44 0.06828315556049347 0.05 0.0056374212726950645
45 0.06668484210968018 0.05 0.0053765978664159775
46 0.06514635682106018 0.05 0.0051313722506165504
47 0.06366151571273804 0.05 0.004900125786662102
48 0.0622202530503273 0.05 0.004680764861404896
49 0.06083139404654503 0.05 0.0044741323217749596
50 0.05948933586478233 0.05 0.004278894048184156
51 0.0581873320043087 0.05 0.004093645606189966
52 0.056922897696495056 0.05 0.003917664755135775
53 0.05570339038968086 0.05 0.0037516001611948013
54 0.05452081933617592 0.05 0.003593999892473221
55 0.05337275192141533 0.05 0.003444232977926731
56 0.05225794017314911 0.05 0.003301854245364666
57 0.05117841437458992 0.05 0.0031668459996581078
58 0.050122521817684174 0.05 0.003037520218640566
59 0.049103859812021255 0.05 0.0029153088107705116
60 0.04810796678066254 0.05 0.0027982553001493216
61 0.04714556783437729 0.05 0.002687416970729828
62 0.04620818793773651 0.05 0.002581613603979349
63 0.04529504477977753 0.05 0.002480588387697935
64 0.04440953955054283 0.05 0.002384546911343932
65 0.04354448616504669 0.05 0.00229255435988307
66 0.04270370677113533 0.05 0.0022048773244023323
67 0.041888415813446045 0.05 0.0021214911248534918
68 0.041088737547397614 0.05 0.002041262574493885
69 0.040314219892024994 0.05 0.0019650328904390335
70 0.03955528512597084 0.05 0.001891744090244174
71 0.038818661123514175 0.05 0.0018219414632767439
72 0.03809961676597595 0.05 0.0017550704069435596
73 0.0373983159661293 0.05 0.0016910538543015718
74 0.036714594811201096 0.05 0.0016297867987304926
75 0.03604787960648537 0.05 0.001571132568642497
76 0.03539563715457916 0.05 0.001514791278168559
77 0.03476051241159439 0.05 0.0014609171776100993
78 0.034143779426813126 0.05 0.0014095372753217816
79 0.033536069095134735 0.05 0.001359808025881648
80 0.032944414764642715 0.05 0.001312251202762127
81 0.03236910328269005 0.05 0.0012668190756812692
82 0.03180190548300743 0.05 0.001222811872139573
83 0.03125247359275818 0.05 0.0011809244751930237
84 0.03071471117436886 0.05 0.0011406337143853307
85 0.030186839401721954 0.05 0.001101764035411179
86 0.029673200100660324 0.05 0.0010645893635228276
87 0.02917013131082058 0.05 0.001028797822073102
88 0.028680361807346344 0.05 0.0009945407509803772
89 0.028195364400744438 0.05 0.0009611889254301786
90 0.027724096551537514 0.05 0.0009293261682614684
91 0.027269039303064346 0.05 0.0008990689530037344
92 0.026812655851244926 0.05 0.0008692266419529915
93 0.026373662054538727 0.05 0.0008409965084865689
94 0.02594052441418171 0.05 0.0008135997923091054
95 0.025520531460642815 0.05 0.0007874676957726479
96 0.025107942521572113 0.05 0.000762211624532938
97 0.024702873080968857 0.05 0.0007378163281828165
98 0.024307051673531532 0.05 0.0007143613183870912
99 0.023918261751532555 0.05 0.0006916916463524103
tuning, 0, 0.0031726460438221693
tuning, 1, 0.002359167207032442
tuning, 2, 0.0018822042038664222
tuning, 3, 0.0014860292430967093
tuning, 4, 0.0013080222997814417
tuning, 5, 0.0013039004988968372
tuning, 6, 0.001264419173821807
tuning, 7, 0.0011346745304763317
tuning, 8, 0.0010032975114881992
tuning, 9, 0.0009382502175867558
tuning, 10, 0.0009267105488106608
tuning, 11, 0.0009160097688436508
tuning, 12, 0.0008803756791166961
tuning, 13, 0.0008308614487759769
tuning, 14, 0.0007860601763240993
tuning, 15, 0.0007544347899965942
tuning, 16, 0.000732372747734189
tuning, 17, 0.000713276444002986
tuning, 18, 0.0006926272762939334
tuning, 19, 0.0006699005025438964
tuning, 20, 0.0006484943442046642
tuning, 21, 0.0006331936456263065
tuning, 22, 0.0006256353808566928
tuning, 23, 0.0006185458041727543
tuning, 24, 0.0006020922446623445
tuning, 25, 0.0005742514040321112
tuning, 26, 0.0005447178846225142
tuning, 27, 0.000525003531947732
tuning, 28, 0.0005182925378903747
tuning, 29, 0.0005183042958378792
tuning, 30, 0.0005155744729563594
tuning, 31, 0.0005054899957031012
tuning, 32, 0.0004892011056654155
tuning, 33, 0.0004721138393506408
tuning, 34, 0.00045916656381450593
tuning, 35, 0.0004499030765146017
tuning, 36, 0.00044175301445648074
tuning, 37, 0.00043324215221218765
tuning, 38, 0.0004250507918186486
tuning, 39, 0.0004177057126071304
tuning, 40, 0.00041063872049562633
tuning, 41, 0.00040285763680003583
tuning, 42, 0.00039514817763119936
tuning, 43, 0.00038838209002278745
tuning, 44, 0.0003829061461146921
tuning, 45, 0.00037760677514597774
tuning, 46, 0.00037183111999183893
tuning, 47, 0.000365966436220333
tuning, 48, 0.0003604122903198004
tuning, 49, 0.0003552620764821768
tuning, 50, 0.00035020982613787055
tuning, 51, 0.0003452286764513701
tuning, 52, 0.0003402321017347276
tuning, 53, 0.0003351345658302307
tuning, 54, 0.00033010912011377513
tuning, 55, 0.00032530465978197753
tuning, 56, 0.00032069513690657914
tuning, 57, 0.0003163787769153714
tuning, 58, 0.0003123291826341301
tuning, 59, 0.00030845211585983634
tuning, 60, 0.00030460080597549677
tuning, 61, 0.0003004298487212509
tuning, 62, 0.00029596773674711585
tuning, 63, 0.0002917929959949106
tuning, 64, 0.0002880203246604651
tuning, 65, 0.0002844762057065964
tuning, 66, 0.00028075918089598417
tuning, 67, 0.00027693615993484855
tuning, 68, 0.0002732053108047694
tuning, 69, 0.0002697481249924749
tuning, 70, 0.00026652851374819875
tuning, 71, 0.00026356286252848804
tuning, 72, 0.0002605933404993266
tuning, 73, 0.00025713842478580773
tuning, 74, 0.00025374448159709573
tuning, 75, 0.0002505866577848792
tuning, 76, 0.0002477684465702623
tuning, 77, 0.0002451083273626864
tuning, 78, 0.00024225839297287166
tuning, 79, 0.0002394088078290224
tuning, 80, 0.0002365999825997278
tuning, 81, 0.0002339560742257163
tuning, 82, 0.00023143424186855555
tuning, 83, 0.00022905207879375666
tuning, 84, 0.00022678908135276288
tuning, 85, 0.0002246188814751804
tuning, 86, 0.00022244092542678118
tuning, 87, 0.00022016085858922452
tuning, 88, 0.0002176095440518111
tuning, 89, 0.0002150421787519008
tuning, 90, 0.00021254240709822625
tuning, 91, 0.00021023827139288187
tuning, 92, 0.00020807997498195618
tuning, 93, 0.00020599839626811445
tuning, 94, 0.00020394280727487057
tuning, 95, 0.0002018983941525221
tuning, 96, 0.00019986237748526037
tuning, 97, 0.00019790034275501966
tuning, 98, 0.0001959906512638554
tuning, 99, 0.00019415844872128218
tuning, 100, 0.0001923407835420221
tuning, 101, 0.0001906126126414165
tuning, 102, 0.0001888570113806054
tuning, 103, 0.00018700919463299215
tuning, 104, 0.00018512073438614607
tuning, 105, 0.0001832673151511699
tuning, 106, 0.00018143391935154796
tuning, 107, 0.00017964118160307407
tuning, 108, 0.0001778974401531741
tuning, 109, 0.00017623984604142606
tuning, 110, 0.00017464101256337017
tuning, 111, 0.00017306841618847102
tuning, 112, 0.00017146437312476337
tuning, 113, 0.0001698335399851203
tuning, 114, 0.00016824199701659381
tuning, 115, 0.00016663984570186585
tuning, 116, 0.00016514612070750445
tuning, 117, 0.00016368282376788557
tuning, 118, 0.00016227661399170756
tuning, 119, 0.00016088123084045947
tuning, 120, 0.00015941188030410558
tuning, 121, 0.00015793029160704464
tuning, 122, 0.00015647638065274805
tuning, 123, 0.00015506890485994518
tuning, 124, 0.00015369217726401985
tuning, 125, 0.00015240114589687437
tuning, 126, 0.00015111593529582024
tuning, 127, 0.00014983814617153257
tuning, 128, 0.000148539780639112
tuning, 129, 0.00014727014058735222
tuning, 130, 0.00014600387657992542
tuning, 131, 0.00014475587522611022
tuning, 132, 0.00014355598250404
tuning, 133, 0.00014239383745007217
tuning, 134, 0.00014122415450401604
tuning, 135, 0.0001400763139827177
tuning, 136, 0.00013894058065488935
tuning, 137, 0.00013776865671388805
tuning, 138, 0.0001366332871839404
tuning, 139, 0.00013553195458371192
tuning, 140, 0.00013442071212921292
tuning, 141, 0.000133374152937904
tuning, 142, 0.00013233610661700368
tuning, 143, 0.00013129913713783026
tuning, 144, 0.00013024533109273762
tuning, 145, 0.0001292147790081799
tuning, 146, 0.00012819914263673127
tuning, 147, 0.00012719487131107599
tuning, 148, 0.00012620186316780746
tuning, 149, 0.0001252324873348698
tuning, 150, 0.00012426538160070777
tuning, 151, 0.0001232956419698894
tuning, 152, 0.00012232025619596243
tuning, 153, 0.00012138220336055383
tuning, 154, 0.00012044415052514523
tuning, 155, 0.00011955027002841234
tuning, 156, 0.00011865100532304496
tuning, 157, 0.00011774651648011059
tuning, 158, 0.00011687231017276645
tuning, 159, 0.00011595460819080472
tuning, 160, 0.00011506883311085403
tuning, 161, 0.0001142187393270433
tuning, 162, 0.00011335071758367121
tuning, 163, 0.00011249887757003307
tuning, 164, 0.000111666668090038
tuning, 165, 0.0001108226933865808
tuning, 166, 0.00010995659977197647
tuning, 167, 0.00010914407175732777
tuning, 168, 0.00010831758118001744
tuning, 169, 0.00010748715430963784
tuning, 170, 0.00010669654875528067
tuning, 171, 0.00010588257282506675
tuning, 172, 0.00010505693353479728
tuning, 173, 0.00010426068911328912
tuning, 174, 0.00010346274211769924
tuning, 175, 0.00010269620543112978
tuning, 176, 0.00010192763147642836
tuning, 177, 0.00010117000056197867
tuning, 178, 0.00010038427717518061
tuning, 179, 9.963156480807811e-05
tuning, 180, 9.888385829981416e-05
tuning, 181, 9.818421676754951e-05
tuning, 182, 9.747505828272551e-05
tuning, 183, 9.673903696238995e-05
tuning, 184, 9.604361548554152e-05
tuning, 185, 9.533861884847283e-05
tuning, 186, 9.46463187574409e-05
tuning, 187, 9.397373651154339e-05
tuning, 188, 9.333192429039627e-05
tuning, 189, 9.2633708845824e-05
tuning, 190, 9.19553785934113e-05
tuning, 191, 9.130849502980709e-05
tuning, 192, 9.064477490028366e-05
tuning, 193, 9.000152203952894e-05
tuning, 194, 8.937398524722084e-05
tuning, 195, 8.874735794961452e-05
tuning, 196, 8.810916915535927e-05

 10%|███████████████████████████▌                                                                                                                                                                                                                                                       | 1/10 [01:40<15:03, 100.39s/it]
tuning, 198, 8.687335503054783e-05
tuning, 199, 8.62431334098801e-05
inversion time : 91.4505181312561
0, 0.1123598963022232
1, 0.1123598963022232
2, 0.10478787124156952
3, 0.0904693454504013
4, 0.07124519348144531
5, 0.050200205296278
6, 0.03146932274103165
7, 0.02034408040344715
8, 0.014895039610564709
9, 0.012932020239531994
10, 0.012725286185741425
11, 0.013170398771762848
12, 0.013688033446669579
13, 0.014029091224074364
14, 0.01412193663418293
15, 0.013982810080051422
16, 0.013660984113812447
17, 0.013210693374276161
18, 0.012682823464274406
19, 0.01211711298674345
20, 0.011540798470377922
21, 0.010973799973726273
22, 0.010428796522319317
23, 0.009914863854646683
24, 0.009437507018446922
25, 0.008999830111861229
26, 0.008603503927588463
27, 0.008249133825302124
28, 0.007936369627714157
29, 0.007663981523364782
30, 0.007430229336023331
31, 0.007233339361846447
32, 0.007070421241223812
33, 0.006938997656106949
34, 0.006836395710706711
35, 0.0067593008279800415
36, 0.006704544182866812
37, 0.006668911315500736
38, 0.006648391019552946
39, 0.006639066152274609
0 2.8507490158081055 0.05 7.882178783416748
1 2.683981418609619 0.05 6.986946105957031
2 2.5080618858337402 0.05 6.101053714752197
3 2.3115599155426025 0.05 5.182492256164551
4 2.074331283569336 0.05 4.173348426818848
5 1.7523113489151 0.05 2.978179693222046
6 1.3605338335037231 0.05 1.7953412532806396
7 0.998609185218811 0.05 0.9672070741653442
8 0.8046080470085144 0.05 0.6279095411300659
9 0.6830352544784546 0.05 0.45249587297439575
10 0.5816081762313843 0.05 0.3280872404575348
11 0.4956789016723633 0.05 0.23830285668373108
12 0.4301829934120178 0.05 0.17948774993419647
13 0.3795606791973114 0.05 0.13973036408424377
14 0.3394574224948883 0.05 0.11176322400569916
15 0.3071345388889313 0.05 0.09149253368377686
16 0.2805779278278351 0.05 0.07635463029146194
17 0.2584608495235443 0.05 0.0647914707660675
18 0.2397938221693039 0.05 0.055770475417375565
19 0.22385849058628082 0.05 0.048604391515254974
20 0.21007226407527924 0.05 0.04280216619372368
21 0.19801589846611023 0.05 0.03803018853068352
22 0.1873510181903839 0.05 0.034043993800878525
23 0.17783091962337494 0.05 0.03067205287516117
24 0.16928072273731232 0.05 0.027793508023023605
25 0.16156864166259766 0.05 0.02531876415014267
26 0.15456216037273407 0.05 0.023170465603470802
27 0.1481809765100479 0.05 0.021296747028827667
28 0.14233747124671936 0.05 0.019650191068649292
29 0.13696998357772827 0.05 0.01819613203406334
30 0.1320154368877411 0.05 0.016903545707464218
31 0.1274215131998062 0.05 0.01574758067727089
32 0.12316511571407318 0.05 0.014713086187839508
33 0.11917710304260254 0.05 0.013775710016489029
34 0.11544512957334518 0.05 0.012926459312438965
35 0.11194261908531189 0.05 0.012154001742601395
36 0.10863879323005676 0.05 0.011447171680629253
37 0.10552812367677689 0.05 0.010801020078361034
38 0.10258070379495621 0.05 0.010206097736954689
39 0.09978935867547989 0.05 0.009658213704824448
40 0.0971359834074974 0.05 0.00915142334997654
41 0.09462037682533264 0.05 0.00868355855345726
42 0.09221222251653671 0.05 0.008247178047895432
43 0.08992189168930054 0.05 0.007842584513127804
44 0.08773212879896164 0.05 0.007465272676199675
45 0.08562640100717545 0.05 0.007111213635653257
46 0.08363287150859833 0.05 0.006783944088965654
47 0.0817045196890831 0.05 0.006474712863564491
48 0.07985155284404755 0.05 0.006184364669024944
49 0.0780704990029335 0.05 0.005911561660468578
50 0.0763605609536171 0.05 0.005655441898852587
51 0.07471300661563873 0.05 0.005414030980318785
52 0.07311849296092987 0.05 0.005185405723750591
53 0.07159546762704849 0.05 0.004971636924892664
54 0.07010789960622787 0.05 0.004767186939716339
55 0.06867853552103043 0.05 0.004574781749397516
56 0.06729568541049957 0.05 0.004392410162836313
57 0.06595050543546677 0.05 0.004218564368784428
58 0.06465182453393936 0.05 0.004054058343172073
59 0.06339646130800247 0.05 0.0038981488905847073
60 0.06216992437839508 0.05 0.0037487722001969814
61 0.06099022179841995 0.05 0.0036078523844480515
62 0.05983537808060646 0.05 0.003472517477348447
63 0.058707062155008316 0.05 0.0033427895978093147
64 0.05763644352555275 0.05 0.003221979131922126
65 0.05657406896352768 0.05 0.003104296512901783
66 0.05554940178990364 0.05 0.002992865163832903
67 0.05454515293240547 0.05 0.00288563035428524
68 0.053582627326250076 0.05 0.002784686628729105
69 0.05262531712651253 0.05 0.0026860730722546577
70 0.05170053243637085 0.05 0.002592497505247593
71 0.05080532655119896 0.05 0.0025034956634044647
72 0.04991859570145607 0.05 0.002416868694126606
73 0.04907399043440819 0.05 0.0023357754107564688
74 0.048234254121780396 0.05 0.0022565212566405535
75 0.047419287264347076 0.05 0.0021809134632349014
76 0.04663090780377388 0.05 0.002108997665345669
77 0.04585569351911545 0.05 0.002039458602666855
78 0.045101407915353775 0.05 0.001972915604710579
79 0.044352080672979355 0.05 0.0019079031189903617
80 0.04363960400223732 0.05 0.0018470978830009699
81 0.04292181879281998 0.05 0.0017868353752419353
82 0.04223688691854477 0.05 0.0017302631167694926
83 0.04155325889587402 0.05 0.001674705883488059
84 0.04091399163007736 0.05 0.0016235739458352327
85 0.040259502828121185 0.05 0.0015720456140115857
86 0.03963135555386543 0.05 0.0015233729500323534
87 0.03902029991149902 0.05 0.0014767588581889868
88 0.03840985149145126 0.05 0.0014309142716228962
89 0.03782922402024269 0.05 0.001387980068102479
90 0.03724146634340286 0.05 0.0013451845152303576
91 0.03668057173490524 0.05 0.0013049698900431395
92 0.036125849932432175 0.05 0.0012657982297241688
93 0.03559437766671181 0.05 0.001228828215971589
94 0.03505750000476837 0.05 0.0011920384131371975
95 0.034535035490989685 0.05 0.0011567731853574514
96 0.03403090685606003 0.05 0.0011232473189011216
97 0.03353571519255638 0.05 0.0010907958494499326
98 0.033040232956409454 0.05 0.001058801542967558
99 0.032574936747550964 0.05 0.0010291899088770151
tuning, 0, 0.006625717040151358
tuning, 1, 0.004947813227772713
tuning, 2, 0.004376266151666641
tuning, 3, 0.004282886162400246
tuning, 4, 0.00416736351326108
tuning, 5, 0.0038937178906053305
tuning, 6, 0.003564459038898349
tuning, 7, 0.0032976276706904173
tuning, 8, 0.003134180326014757
tuning, 9, 0.0030448983889073133
tuning, 10, 0.0029817509930580854
tuning, 11, 0.0029165956657379866
tuning, 12, 0.002847377210855484
tuning, 13, 0.002781449817121029
tuning, 14, 0.0027252319268882275
tuning, 15, 0.002677330281585455
tuning, 16, 0.0026319515891373158
tuning, 17, 0.0025852685794234276
tuning, 18, 0.002535260282456875
tuning, 19, 0.002482365584000945
tuning, 20, 0.0024254266172647476
