
  0%|                                                                                                                                                                                                                                                                                                                                                                              | 0/10 [00:00<?, ?it/s]
0, 0.1364392638206482
1, 0.1364392638206482
2, 0.1297922432422638
3, 0.1169479638338089
4, 0.09893618524074554
5, 0.07756023108959198
6, 0.05549613758921623
7, 0.0388256311416626
8, 0.027222147211432457
9, 0.019793059676885605
10, 0.015392995439469814
11, 0.012939474545419216
12, 0.011598153039813042
13, 0.010818245820701122
14, 0.010276537388563156
15, 0.009808328002691269
16, 0.009342383593320847
17, 0.008861841633915901
18, 0.008372615091502666
19, 0.00789179839193821
20, 0.007438261061906815
21, 0.007025696337223053
22, 0.006664020475000143
23, 0.00635857880115509
24, 0.006110525690019131
25, 0.0059194378554821014
26, 0.005779873579740524
27, 0.005686450749635696
28, 0.005631494335830212
29, 0.005606170743703842
0 2.5123095512390137 0.05 7.140213966369629
1 2.3512072563171387 0.05 6.253840446472168
2 2.182328939437866 0.05 5.387724876403809
3 1.9794577360153198 0.05 4.432589530944824
4 1.6754400730133057 0.05 3.1755776405334473
5 1.2964632511138916 0.05 1.9014520645141602
6 0.9130989909172058 0.05 0.943193256855011
7 0.6585628986358643 0.05 0.4906361699104309
8 0.5219272375106812 0.05 0.30816617608070374
9 0.4293077886104584 0.05 0.2084982991218567
10 0.36482176184654236 0.05 0.15056583285331726
11 0.3171461224555969 0.05 0.11378467828035355
12 0.27937349677085876 0.05 0.0882948637008667
13 0.25029999017715454 0.05 0.07087394595146179
14 0.22706057131290436 0.05 0.05832415074110031
15 0.2076333463191986 0.05 0.0487707182765007
16 0.19185008108615875 0.05 0.04163791239261627
17 0.17894814908504486 0.05 0.03622591495513916
18 0.16814826428890228 0.05 0.03198525309562683
19 0.15889807045459747 0.05 0.028562892228364944
20 0.1508314460515976 0.05 0.025736460462212563
21 0.14371836185455322 0.05 0.023366274312138557
22 0.13734905421733856 0.05 0.021341077983379364
23 0.13161338865756989 0.05 0.01959589496254921
24 0.1264108568429947 0.05 0.0180773064494133
25 0.12164688110351562 0.05 0.01674044132232666
26 0.11728163808584213 0.05 0.015560554340481758
27 0.11324775218963623 0.05 0.014508555643260479
28 0.10949229449033737 0.05 0.013562260195612907
29 0.1059989333152771 0.05 0.012710655108094215
30 0.10273374617099762 0.05 0.01193963922560215
31 0.09965277463197708 0.05 0.011234241537749767
32 0.09675326198339462 0.05 0.010590006597340107
33 0.09400059282779694 0.05 0.009995998814702034
34 0.09139957278966904 0.05 0.009450467303395271
35 0.08891850709915161 0.05 0.008944360539317131
36 0.0865543782711029 0.05 0.008475065231323242
37 0.08429629355669022 0.05 0.008038627915084362
38 0.08214015513658524 0.05 0.007632661145180464
39 0.08007504791021347 0.05 0.007253696676343679
40 0.0780901089310646 0.05 0.006898537743836641
41 0.07619241625070572 0.05 0.006567325443029404
42 0.07436782121658325 0.05 0.006256552413105965
43 0.07260658591985703 0.05 0.005963717587292194
44 0.07091598212718964 0.05 0.0056892260909080505
45 0.0692901611328125 0.05 0.0054313549771904945
46 0.06771471351385117 0.05 0.00518717709928751
47 0.06620132923126221 0.05 0.00495790783315897
48 0.06473715603351593 0.05 0.004741024225950241
49 0.06332326680421829 0.05 0.004536193795502186
50 0.06196155399084091 0.05 0.004343197215348482
51 0.06063997000455856 0.05 0.004159900359809399
52 0.059369295835494995 0.05 0.003987390082329512
53 0.058129388839006424 0.05 0.003822579514235258
54 0.05693212151527405 0.05 0.003666736651211977
55 0.0557747557759285 0.05 0.0035191706847399473
56 0.05466198921203613 0.05 0.0033801491372287273
57 0.053569208830595016 0.05 0.003246351145207882
58 0.05251232162117958 0.05 0.003119517583400011
59 0.05148722231388092 0.05 0.002998913172632456
60 0.050491854548454285 0.05 0.002884082030504942
61 0.0495283268392086 0.05 0.002775059547275305
62 0.0485834963619709 0.05 0.0026701921597123146
63 0.047670263797044754 0.05 0.002570751588791609
64 0.046784400939941406 0.05 0.002476094290614128
65 0.045916177332401276 0.05 0.002385044004768133
66 0.045076820999383926 0.05 0.0022986428812146187
67 0.044253986328840256 0.05 0.0022154899779707193
68 0.04344988986849785 0.05 0.0021357103250920773
69 0.04267168045043945 0.05 0.0020598922856152058
70 0.041910819709300995 0.05 0.0019870889373123646
71 0.04117157310247421 0.05 0.0019176083151251078
72 0.04044703021645546 0.05 0.001850709319114685
73 0.03974228724837303 0.05 0.0017867784481495619
74 0.039054419845342636 0.05 0.0017254619160667062
75 0.03838392347097397 0.05 0.001666723983362317
76 0.037723738700151443 0.05 0.0016098837368190289
77 0.037087325006723404 0.05 0.0015560230240225792
78 0.03645560145378113 0.05 0.001503465697169304
79 0.035847488790750504 0.05 0.0014537256211042404
80 0.03524782508611679 0.05 0.0014054961502552032
81 0.034664686769247055 0.05 0.0013593758922070265
82 0.0340922549366951 0.05 0.0013148507568985224
83 0.03353434056043625 0.05 0.001272168243303895
84 0.032987069338560104 0.05 0.001230984227731824
85 0.03244882449507713 0.05 0.0011911401525139809
86 0.03192797303199768 0.05 0.0011532080825418234
87 0.03141919896006584 0.05 0.0011167479678988457
88 0.030918285250663757 0.05 0.0010814233683049679
89 0.030425652861595154 0.05 0.0010472366120666265
90 0.02994641289114952 0.05 0.0010145059786736965
91 0.029476620256900787 0.05 0.0009829248301684856
92 0.02901664562523365 0.05 0.000952487753238529
93 0.02856581099331379 0.05 0.0009231199510395527
94 0.02812718227505684 0.05 0.0008949884213507175
95 0.027692243456840515 0.05 0.0008675234857946634
96 0.027267375960946083 0.05 0.0008411079179495573
97 0.026851067319512367 0.05 0.0008156203548423946
98 0.02644745260477066 0.05 0.0007912846049293876
99 0.026046685874462128 0.05 0.0007674850057810545
tuning, 0, 0.005652100779116154
tuning, 1, 0.0038231161888688803
tuning, 2, 0.003239298239350319
tuning, 3, 0.0027016939129680395
tuning, 4, 0.002168061211705208
tuning, 5, 0.0017432018648833036
tuning, 6, 0.0015049719950184226
tuning, 7, 0.0014121318235993385
tuning, 8, 0.0013433138374239206
tuning, 9, 0.0012371628545224667
tuning, 10, 0.0011250715469941497
tuning, 11, 0.0010643088025972247
tuning, 12, 0.001074987230822444
tuning, 13, 0.001120123895816505
tuning, 14, 0.0011435658670961857
tuning, 15, 0.0011100572301074862
tuning, 16, 0.001025971258059144
tuning, 17, 0.0009267943678423762
tuning, 18, 0.0008457552175968885
tuning, 19, 0.0007911613211035728

 10%|███████████████████████████████████▊                                                                                                                                                                                                                                                                                                                                  | 1/10 [00:26<04:00, 26.67s/it]
0, 0.1123598963022232
1, 0.1123598963022232
2, 0.10478805005550385
3, 0.09046921133995056
4, 0.07124515622854233
5, 0.05020017921924591
6, 0.031469330191612244
7, 0.020359035581350327
8, 0.014924801886081696
9, 0.012938734143972397
10, 0.012658519670367241
11, 0.012994464486837387
12, 0.013388300314545631
13, 0.0136150186881423
14, 0.013617261312901974
15, 0.013421885669231415
16, 0.013080398552119732
17, 0.012647205963730812
18, 0.012169605121016502
19, 0.011684837751090527
20, 0.011219330132007599
21, 0.010790879838168621
22, 0.010410554707050323
23, 0.010085159912705421
24, 0.009817267768085003
25, 0.009607508778572083
26, 0.009452436119318008
27, 0.00934701319783926
28, 0.0092848502099514
29, 0.00925548654049635
0 2.862286329269409 0.05 7.602211952209473
1 2.696920871734619 0.05 6.7491679191589355
2 2.5246670246124268 0.05 5.914555549621582
3 2.3318145275115967 0.05 5.045471668243408
4 2.092292547225952 0.05 4.062175273895264
5 1.7660719156265259 0.05 2.894213914871216
6 1.3688266277313232 0.05 1.7386443614959717
7 1.012661099433899 0.05 0.9515730142593384
8 0.8032142519950867 0.05 0.598655104637146
9 0.6810205578804016 0.05 0.43036240339279175
10 0.5817099809646606 0.05 0.3139979839324951
11 0.49497082829475403 0.05 0.2273385375738144
12 0.4288693368434906 0.05 0.17067261040210724
13 0.37919074296951294 0.05 0.13342256844043732
14 0.3400726914405823 0.05 0.10731424391269684
15 0.3084774613380432 0.05 0.08830000460147858
16 0.2825065851211548 0.05 0.07405784726142883
17 0.260875940322876 0.05 0.06315123289823532
18 0.24259482324123383 0.05 0.05461059510707855
19 0.22692225873470306 0.05 0.04778240621089935
20 0.21331709623336792 0.05 0.04222456365823746
21 0.20133648812770844 0.05 0.03761480748653412
22 0.19070327281951904 0.05 0.03374660760164261
23 0.18118183314800262 0.05 0.030460931360721588
24 0.17262397706508636 0.05 0.027651332318782806
25 0.16486988961696625 0.05 0.025222990661859512
26 0.15782712399959564 0.05 0.02311410941183567
27 0.1513998657464981 0.05 0.021269872784614563
28 0.14552335441112518 0.05 0.019650757312774658
29 0.14009888470172882 0.05 0.018213074654340744
30 0.13509050011634827 0.05 0.01693415269255638
31 0.1304490715265274 0.05 0.01579049974679947
32 0.12612926959991455 0.05 0.014762013219296932
33 0.12210219353437424 0.05 0.013834415003657341
34 0.1183348223567009 0.05 0.012993884272873402
35 0.11478836834430695 0.05 0.012226710096001625
36 0.11147012561559677 0.05 0.011530041694641113
37 0.10832521319389343 0.05 0.01088862307369709
38 0.10535168647766113 0.05 0.010299043729901314
39 0.10254215449094772 0.05 0.009757054038345814
40 0.09987009316682816 0.05 0.009255178272724152
41 0.09732604771852493 0.05 0.008789658546447754
42 0.09491247683763504 0.05 0.008359117433428764
43 0.09259861707687378 0.05 0.007956515066325665
44 0.09039107710123062 0.05 0.007581672631204128
45 0.08828040957450867 0.05 0.0072317360900342464
46 0.08625923097133636 0.05 0.006904384586960077
47 0.08431331068277359 0.05 0.006596386898308992
48 0.08244800567626953 0.05 0.006307745352387428
49 0.08065635710954666 0.05 0.006036581937223673
50 0.07892757654190063 0.05 0.005780579522252083
51 0.07726340740919113 0.05 0.005539384670555592
52 0.0756516382098198 0.05 0.005310685373842716
53 0.07410746812820435 0.05 0.005096098408102989
54 0.07260817289352417 0.05 0.004891982302069664
55 0.07115878164768219 0.05 0.004698625765740871
56 0.06974735856056213 0.05 0.004514081869274378
57 0.06838682293891907 0.05 0.004339690785855055
58 0.06706346571445465 0.05 0.0041733598336577415
59 0.06578388810157776 0.05 0.00401562312617898
60 0.0645405501127243 0.05 0.0038652638904750347
61 0.06333550810813904 0.05 0.003722274675965309
62 0.062167782336473465 0.05 0.003586283652111888
63 0.061020974069833755 0.05 0.003455191617831588
64 0.059910837560892105 0.05 0.003330616280436516
65 0.058840472251176834 0.05 0.0032126703299582005
66 0.05778467655181885 0.05 0.0030984124168753624
67 0.05676576867699623 0.05 0.002990108449012041
68 0.05577348172664642 0.05 0.002886485308408737
69 0.05480087548494339 0.05 0.0027866915334016085
70 0.053859006613492966 0.05 0.002691724104806781
71 0.05293748900294304 0.05 0.002600402105599642
72 0.05204184725880623 0.05 0.002513155108317733
73 0.05117037892341614 0.05 0.002429691608995199
74 0.05031673237681389 0.05 0.002349301241338253
75 0.0494832880795002 0.05 0.0022721183486282825
76 0.04867585375905037 0.05 0.0021985736675560474
77 0.047876790165901184 0.05 0.0021269824355840683
78 0.047102004289627075 0.05 0.0020586978644132614
79 0.046348538249731064 0.05 0.0019933609291911125
80 0.045604098588228226 0.05 0.0019298415863886476
81 0.04488399997353554 0.05 0.0018693775637075305
82 0.04418475553393364 0.05 0.0018115852726623416
83 0.04348642751574516 0.05 0.0017547744791954756
84 0.04281358793377876 0.05 0.0017008936265483499
85 0.042156342417001724 0.05 0.0016490721609443426
86 0.04150943085551262 0.05 0.0015988489612936974
87 0.040871504694223404 0.05 0.001550083514302969
88 0.04025348648428917 0.05 0.0015035603428259492
89 0.03965087607502937 0.05 0.0014588796766474843
90 0.03906285762786865 0.05 0.0014159302227199078
91 0.038479939103126526 0.05 0.001373987179249525
92 0.03791544958949089 0.05 0.0013339705765247345
93 0.03735388070344925 0.05 0.0012947481591254473
94 0.03680846095085144 0.05 0.0012572139967232943
95 0.036281049251556396 0.05 0.0012214439921081066
96 0.03576406463980675 0.05 0.001186882145702839
97 0.03524100035429001 0.05 0.0011524185538291931
98 0.0347348190844059 0.05 0.0011195510160177946
99 0.03425202518701553 0.05 0.0010886453092098236
tuning, 0, 0.009219424799084663
tuning, 1, 0.0061147455126047134
tuning, 2, 0.004943542182445526
tuning, 3, 0.004730935208499432
tuning, 4, 0.004658866208046675
tuning, 5, 0.0044609736651182175
tuning, 6, 0.004166754893958569
tuning, 7, 0.0038654496893286705
tuning, 8, 0.0036231286358088255
tuning, 9, 0.003458906663581729
tuning, 10, 0.0033569857478141785
tuning, 11, 0.0032794694416224957
tuning, 12, 0.0032002246007323265
tuning, 13, 0.003120834706351161
tuning, 14, 0.0030532812234014273
tuning, 15, 0.0029954127967357635
tuning, 16, 0.0029357634484767914
tuning, 17, 0.0028604071121662855
tuning, 18, 0.00277456222102046
tuning, 19, 0.0026945038698613644

 20%|███████████████████████████████████████████████████████████████████████▌                                                                                                                                                                                                                                                                                              | 2/10 [00:52<03:31, 26.41s/it]
0, 0.09775816649198532
1, 0.09775816649198532
2, 0.09261506795883179
3, 0.0827256515622139
4, 0.0690142810344696
5, 0.053106747567653656
6, 0.0375177375972271
7, 0.02682862989604473
8, 0.020238645374774933
9, 0.016378626227378845
10, 0.014047615230083466
11, 0.012472862377762794
12, 0.011244780384004116
13, 0.010183273814618587
14, 0.00922714825719595
15, 0.008365511894226074
16, 0.0075992620550096035
17, 0.006929056253284216
18, 0.00635127630084753
19, 0.005858930759131908
20, 0.00544434878975153
21, 0.005099847912788391
22, 0.00481766602024436
23, 0.0045912726782262325
24, 0.0044144876301288605
25, 0.004281241912394762
26, 0.004185996949672699
27, 0.004123229067772627
28, 0.004086612723767757
29, 0.004069823771715164
0 2.7382819652557373 0.05 8.710742950439453
1 2.575263261795044 0.05 7.704458236694336
2 2.409813165664673 0.05 6.7462992668151855
3 2.195798397064209 0.05 5.601234436035156
4 1.8231028318405151 0.05 3.8611903190612793
5 1.3682091236114502 0.05 2.174722194671631
6 0.967615008354187 0.05 1.0876872539520264
7 0.7062760591506958 0.05 0.5794925093650818
8 0.553185760974884 0.05 0.35550105571746826
9 0.4631038308143616 0.05 0.249146968126297
10 0.4020882844924927 0.05 0.1878199428319931
11 0.35690876841545105 0.05 0.14798349142074585
12 0.32176855206489563 0.05 0.12027797102928162
13 0.2932400405406952 0.05 0.09989537298679352
14 0.2694039046764374 0.05 0.08431535959243774
15 0.24922078847885132 0.05 0.07215516269207001
16 0.23207706212997437 0.05 0.06256959587335587
17 0.21741962432861328 0.05 0.05491567403078079
18 0.20476660132408142 0.05 0.04870988056063652
19 0.19373537600040436 0.05 0.04360303282737732
20 0.1840496063232422 0.05 0.0393521711230278
21 0.17544826865196228 0.05 0.03575996309518814
22 0.16773271560668945 0.05 0.03268394246697426
23 0.16075336933135986 0.05 0.03002057783305645
24 0.15439939498901367 0.05 0.027694277465343475
25 0.1485712081193924 0.05 0.025642963126301765
26 0.14321640133857727 0.05 0.023827821016311646
27 0.13826291263103485 0.05 0.022208038717508316
28 0.13365881145000458 0.05 0.020753633230924606
29 0.12936925888061523 0.05 0.01944289728999138
30 0.12535984814167023 0.05 0.018256429582834244
31 0.12158114463090897 0.05 0.01717241108417511
32 0.11803080886602402 0.05 0.016184139996767044
33 0.11467177420854568 0.05 0.015276080928742886
34 0.11148065328598022 0.05 0.014437694102525711
35 0.10845358669757843 0.05 0.013664279133081436
36 0.10556183010339737 0.05 0.012945316731929779
37 0.10280723869800568 0.05 0.012278527021408081
38 0.10017529129981995 0.05 0.011657895520329475
39 0.09765289723873138 0.05 0.011078198440372944
40 0.09523369371891022 0.05 0.010536104440689087
41 0.09291136264801025 0.05 0.01002851314842701
42 0.09069152176380157 0.05 0.009555034339427948
43 0.08855055272579193 0.05 0.009109224192798138
44 0.08650223910808563 0.05 0.008692678064107895
45 0.08450528979301453 0.05 0.00829596072435379
46 0.08260635286569595 0.05 0.007927308790385723
47 0.08076191693544388 0.05 0.007577259559184313
48 0.0789944976568222 0.05 0.007249242160469294
49 0.07727576792240143 0.05 0.0069372206926345825
50 0.07560954988002777 0.05 0.006641285493969917
51 0.07399991899728775 0.05 0.006361527368426323
52 0.07244683057069778 0.05 0.006097300443798304
53 0.07093557715415955 0.05 0.005845572799444199
54 0.06946564465761185 0.05 0.00560581823810935
55 0.06803227961063385 0.05 0.005376863293349743
56 0.06664866209030151 0.05 0.005160380620509386
57 0.06530431658029556 0.05 0.004954304080456495
58 0.06399437040090561 0.05 0.004757539369165897
59 0.06271075457334518 0.05 0.004568597301840782
60 0.061471302062273026 0.05 0.004389789886772633
61 0.060258813202381134 0.05 0.0042183250188827515
62 0.05908684805035591 0.05 0.004055837169289589
63 0.057951223105192184 0.05 0.003901432268321514
64 0.056836485862731934 0.05 0.0037527817767113447
65 0.05576531961560249 0.05 0.003612661734223366
66 0.05471228063106537 0.05 0.003477511228993535
67 0.0536930151283741 0.05 0.003349148668348789
68 0.05271890386939049 0.05 0.003228728659451008
69 0.051739998161792755 0.05 0.003109937533736229
70 0.050810836255550385 0.05 0.0029992423951625824
71 0.049902308732271194 0.05 0.0028929447289556265
72 0.048997532576322556 0.05 0.0027889919001609087
73 0.04816528037190437 0.05 0.0026950512547045946
74 0.047312181442976 0.05 0.002600428182631731
75 0.0465020053088665 0.05 0.0025121308863162994
76 0.045730266720056534 0.05 0.0024294403847306967
77 0.044929467141628265 0.05 0.0023451000452041626
78 0.044191114604473114 0.05 0.002268657088279724
79 0.04344620928168297 0.05 0.0021928180940449238
80 0.042731862515211105 0.05 0.002121301833540201
81 0.04203961044549942 0.05 0.002053129021078348
82 0.041336674243211746 0.05 0.0019850428216159344
83 0.04069121927022934 0.05 0.0019235359504818916
84 0.04002869501709938 0.05 0.0018614089349284768
85 0.03940115496516228 0.05 0.0018035026732832193
86 0.03877878934144974 0.05 0.001746977912262082
87 0.03818107768893242 0.05 0.0016935390885919333
88 0.03755972534418106 0.05 0.0016388667281717062
89 0.03698848560452461 0.05 0.0015893954550847411
90 0.03642505407333374 0.05 0.0015413429355248809
91 0.03588485345244408 0.05 0.0014959641266614199
92 0.03530551493167877 0.05 0.001448051305487752
93 0.03480377048254013 0.05 0.001407186035066843
94 0.034276992082595825 0.05 0.0013649106258526444
95 0.03373896703124046 0.05 0.0013223988935351372
96 0.03326340392231941 0.05 0.0012853823136538267
97 0.0327521450817585 0.05 0.0012461731676012278
98 0.03226965665817261 0.05 0.0012097274884581566
99 0.03181701526045799 0.05 0.0011760282795876265
tuning, 0, 0.004085371270775795
tuning, 1, 0.002777899382635951
tuning, 2, 0.0023365956731140614
tuning, 3, 0.0020919684320688248
tuning, 4, 0.0018354266649112105
tuning, 5, 0.001599396811798215
tuning, 6, 0.0014339224435389042
tuning, 7, 0.0013242131099104881
tuning, 8, 0.001242894446477294
tuning, 9, 0.0011796023463830352
tuning, 10, 0.0011212762910872698
tuning, 11, 0.0010586591670289636
tuning, 12, 0.0009980702307075262
tuning, 13, 0.0009495461126789451
tuning, 14, 0.0009125955402851105
tuning, 15, 0.0008825137629173696
tuning, 16, 0.000854811049066484
tuning, 17, 0.0008268266683444381
tuning, 18, 0.0007967589772306383
tuning, 19, 0.0007669897750020027

