
  0%|                                                                                                                                                                                                                                                                                            | 0/10 [00:00<?, ?it/s]
0, 0.1364392638206482
1, 0.1364392638206482
2, 0.12979260087013245
3, 0.1169482097029686
4, 0.09893608093261719
5, 0.07756026834249496
6, 0.055496178567409515
7, 0.038786571472883224
8, 0.027090884745121002
9, 0.019567687064409256
10, 0.015127448365092278
11, 0.012711933813989162
12, 0.01147479098290205
13, 0.010833416134119034
14, 0.010430768132209778
15, 0.010070515796542168
16, 0.009662622585892677
17, 0.009177672676742077
18, 0.008623197674751282
19, 0.008024754002690315
20, 0.007409918587654829
21, 0.006803994998335838
22, 0.0062265521846711636
23, 0.005691841244697571
24, 0.005209321156144142
25, 0.004781139083206654
26, 0.004408353008329868
27, 0.00408655172213912
28, 0.0038105982821434736
29, 0.003574315458536148
30, 0.0033716659527271986
31, 0.0031970671843737364
32, 0.003045794554054737
33, 0.002913909964263439
34, 0.002798457397148013
35, 0.0026968396268785
36, 0.0026075670029968023
37, 0.0025293142534792423
38, 0.0024609596002846956
39, 0.0024020569398999214
40, 0.002351493341848254
41, 0.00230897543951869
42, 0.0022739777341485023
43, 0.002245580777525902
44, 0.002223700052127242
45, 0.00220719026401639
46, 0.0021953664254397154
47, 0.002187693491578102
48, 0.0021833295468240976
49, 0.0021813276689499617
0 2.4727790355682373 0.05 7.611881732940674
1 2.305788993835449 0.05 6.618514537811279
2 2.129446029663086 0.05 5.6448798179626465
3 1.9182311296463013 0.05 4.580609321594238
4 1.6305243968963623 0.05 3.309603691101074
5 1.2721033096313477 0.05 2.0144948959350586
6 0.8867363333702087 0.05 0.9788370728492737
7 0.6099593043327332 0.05 0.46315157413482666
8 0.48368772864341736 0.05 0.2912403345108032
9 0.398133784532547 0.05 0.19732379913330078
10 0.34349316358566284 0.05 0.14687830209732056
11 0.30250099301338196 0.05 0.11391346156597137
12 0.26959747076034546 0.05 0.09048009663820267
13 0.24310582876205444 0.05 0.07357192039489746
14 0.22174623608589172 0.05 0.06121162325143814
15 0.20422187447547913 0.05 0.05191894993185997
16 0.18954558670520782 0.05 0.04472484067082405
17 0.17704851925373077 0.05 0.03902168944478035
18 0.16630177199840546 0.05 0.03442826494574547
19 0.156908318400383 0.05 0.030648788437247276
20 0.14869391918182373 0.05 0.027523759752511978
21 0.14134815335273743 0.05 0.02487148344516754
22 0.13480623066425323 0.05 0.02262253686785698
23 0.12889938056468964 0.05 0.02068345621228218
24 0.12354268878698349 0.05 0.019000083208084106
25 0.11866754293441772 0.05 0.017530137673020363
26 0.11417070776224136 0.05 0.016226721927523613
27 0.11003414541482925 0.05 0.015072191134095192
28 0.10618993639945984 0.05 0.014037447050213814
29 0.10261909663677216 0.05 0.013109248131513596
30 0.09927515685558319 0.05 0.012268813326954842
31 0.09614163637161255 0.05 0.011506532318890095
32 0.09319106489419937 0.05 0.010811101645231247
33 0.09042027592658997 0.05 0.01017777994275093
34 0.0877767875790596 0.05 0.00959137361496687
35 0.08528809994459152 0.05 0.009055203758180141
36 0.08291766047477722 0.05 0.008558850735425949
37 0.08066350221633911 0.05 0.008099823258817196
38 0.07851485908031464 0.05 0.007674059830605984
39 0.07646030932664871 0.05 0.007277688942849636
40 0.07448945939540863 0.05 0.006907343864440918
41 0.07260581105947495 0.05 0.006562421564012766
42 0.07079900056123734 0.05 0.006239871960133314
43 0.0690760463476181 0.05 0.005939860828220844
44 0.0673937052488327 0.05 0.005654055625200272
45 0.06578885018825531 0.05 0.005387980490922928
46 0.0642324909567833 0.05 0.0051360707730054855
47 0.06274955719709396 0.05 0.004901654552668333
48 0.06129860877990723 0.05 0.004677595105022192
49 0.05990367382764816 0.05 0.0044671278446912766
50 0.058558229357004166 0.05 0.004268716089427471
51 0.057252246886491776 0.05 0.004080435261130333
52 0.05599163472652435 0.05 0.003902723081409931
53 0.05477015674114227 0.05 0.0037343015428632498
54 0.053585078567266464 0.05 0.0035744495689868927
55 0.05243867263197899 0.05 0.0034231410827487707
56 0.05132507160305977 0.05 0.0032792952843010426
57 0.050240855664014816 0.05 0.0031422115862369537
58 0.049193400889635086 0.05 0.0030125556513667107
59 0.04817115142941475 0.05 0.0028886538930237293
60 0.047177065163850784 0.05 0.0027706599794328213
61 0.046214234083890915 0.05 0.0026587219908833504
62 0.0452764555811882 0.05 0.002551915356889367
63 0.04436613619327545 0.05 0.002450330415740609
64 0.04348158463835716 0.05 0.002353596966713667
65 0.04261396825313568 0.05 0.0022606083657592535
66 0.04177034646272659 0.05 0.0021719885990023613
67 0.04095647856593132 0.05 0.002088173758238554
68 0.04015830531716347 0.05 0.002007576869800687
69 0.03938211500644684 0.05 0.0019307208713144064
70 0.038624588400125504 0.05 0.0018571590771898627
71 0.037888605147600174 0.05 0.0017870578449219465
72 0.03717001900076866 0.05 0.0017199149588122964
73 0.03646755591034889 0.05 0.0016555213369429111
74 0.035780925303697586 0.05 0.0015937660355120897
75 0.03511601686477661 0.05 0.0015350831672549248
76 0.03446511551737785 0.05 0.001478702761232853
77 0.0338313952088356 0.05 0.001424824120476842
78 0.03320997208356857 0.05 0.0013729617930948734
79 0.03260503336787224 0.05 0.0013233989011496305
80 0.03201514109969139 0.05 0.001275945920497179
81 0.03143841400742531 0.05 0.0012303898110985756
82 0.03087710216641426 0.05 0.0011868461733683944
83 0.030325567349791527 0.05 0.0011448252480477095
84 0.029788494110107422 0.05 0.0011046341387555003
85 0.029264187440276146 0.05 0.001066091237589717
86 0.028750499710440636 0.05 0.0010289924684911966
87 0.028250442817807198 0.05 0.0009935094276443124
88 0.027760742232203484 0.05 0.0009593641734682024
89 0.02728281170129776 0.05 0.0009266157285310328
90 0.0268128402531147 0.05 0.0008949670591391623
91 0.026356345042586327 0.05 0.000864752393681556
92 0.025909429416060448 0.05 0.0008356744656339288
93 0.02547556161880493 0.05 0.0008079210529103875
94 0.025043120607733727 0.05 0.0007807253859937191
95 0.024620138108730316 0.05 0.0007545748958364129
96 0.0242165457457304 0.05 0.0007300385041162372
97 0.02381199039518833 0.05 0.0007058506598696113
98 0.023423226550221443 0.05 0.0006829907651990652
99 0.0230337493121624 0.05 0.0006604662630707026
tuning, 0, 0.0021855824161320925
tuning, 1, 0.0021855824161320925
tuning, 2, 0.0020975847728550434
tuning, 3, 0.0019417998846620321
tuning, 4, 0.0017477184301242232
tuning, 5, 0.00154846569057554
tuning, 6, 0.00137386005371809
tuning, 7, 0.0012477710843086243
tuning, 8, 0.0011809745337814093
tuning, 9, 0.0011616311967372894
tuning, 10, 0.0011632614769041538
tuning, 11, 0.001160057494416833
tuning, 12, 0.0011351443827152252
tuning, 13, 0.0010884285438805819
tuning, 14, 0.0010300206486135721
tuning, 15, 0.0009682327508926392
tuning, 16, 0.0009084446355700493
tuning, 17, 0.0008542342111468315
tuning, 18, 0.0008079381659626961
tuning, 19, 0.0007700336864218116
tuning, 20, 0.0007399395108222961
tuning, 21, 0.0007161066750995815
tuning, 22, 0.0006969849346205592
tuning, 23, 0.000682049198076129
tuning, 24, 0.0006689382717013359
tuning, 25, 0.0006559013272635639
tuning, 26, 0.0006411371286958456
tuning, 27, 0.0006244200631044805
tuning, 28, 0.0006062148604542017
tuning, 29, 0.000588368100579828
tuning, 30, 0.0005724569782614708
tuning, 31, 0.0005588479689322412
tuning, 32, 0.0005483053391799331
tuning, 33, 0.0005400068475864828
tuning, 34, 0.0005331771681085229
tuning, 35, 0.0005273530841805041
tuning, 36, 0.0005223922780714929
tuning, 37, 0.0005180174484848976
tuning, 38, 0.0005139869754202664
tuning, 39, 0.0005104103474877775
tuning, 40, 0.0005074095679447055
tuning, 41, 0.0005047532031312585
tuning, 42, 0.0005027064471505582
tuning, 43, 0.0005010140012018383
tuning, 44, 0.0004997398937121034
tuning, 45, 0.0004987101419828832
tuning, 46, 0.0004980297526344657
tuning, 47, 0.0004976329510100186
tuning, 48, 0.0004973543109372258
tuning, 49, 0.0004972782335244119

 10%|███████████████████████████▌                                                                                                                                                                                                                                                        | 1/10 [00:44<06:40, 44.49s/it]
0, 0.1123598963022232
1, 0.1123598963022232
2, 0.10478775203227997
3, 0.09046938270330429
4, 0.07124527543783188
5, 0.05020029470324516
6, 0.03146940842270851
7, 0.02033759094774723
8, 0.014882927760481834
9, 0.012929672375321388
10, 0.012753958813846111
11, 0.013247525319457054
12, 0.013819579035043716
13, 0.014212571084499359
14, 0.014346888288855553
15, 0.014237109571695328
16, 0.013929314911365509
17, 0.0134798064827919
18, 0.012940717861056328
19, 0.0123523510992527
20, 0.011743406765162945
21, 0.011133096180856228
22, 0.01053588092327118
23, 0.009960979223251343
24, 0.009413577616214752
25, 0.008898751810193062
26, 0.008419381454586983
27, 0.007976777851581573
28, 0.00757202273234725
29, 0.007205627392977476
30, 0.0068761808797717094
31, 0.006581964902579784
32, 0.006320605985820293
33, 0.00608966825529933
34, 0.005886679049581289
35, 0.005709067918360233
36, 0.005554637871682644
37, 0.005420656409114599
38, 0.005305519327521324
39, 0.005207344423979521
40, 0.005124686285853386
41, 0.0050561013631522655
42, 0.0050002336502075195
43, 0.004955551587045193
44, 0.004921178799122572
45, 0.004895480815321207
46, 0.004877401515841484
47, 0.004865681286901236
48, 0.00485896784812212
49, 0.0048559894785285
0 2.8400232791900635 0.05 8.041019439697266
1 2.6726527214050293 0.05 7.121185779571533
2 2.4962706565856934 0.05 6.212274074554443
3 2.2982161045074463 0.05 5.265613555908203
4 2.0611159801483154 0.05 4.235182285308838
5 1.741830587387085 0.05 3.024677276611328
6 1.3550153970718384 0.05 1.8304407596588135
7 0.9849130511283875 0.05 0.9670814275741577
8 0.7967082262039185 0.05 0.6327990293502808
9 0.6750233769416809 0.05 0.45426034927368164
10 0.5734874606132507 0.05 0.3278801441192627
11 0.48872649669647217 0.05 0.23812171816825867
12 0.4251363277435303 0.05 0.18018707633018494
13 0.37590059638023376 0.05 0.14086829125881195
14 0.33664238452911377 0.05 0.11298082768917084
15 0.30478155612945557 0.05 0.09260717034339905
16 0.2784810960292816 0.05 0.07731408625841141
17 0.2564985156059265 0.05 0.06558989733457565
18 0.23788543045520782 0.05 0.05641607940196991
19 0.2219347208738327 0.05 0.049104101955890656
20 0.20810358226299286 0.05 0.04317440837621689
21 0.1960211843252182 0.05 0.038306571543216705
22 0.18535709381103516 0.05 0.03425198048353195
23 0.17588010430335999 0.05 0.03083902597427368
24 0.16737975180149078 0.05 0.027930138632655144
25 0.15971919894218445 0.05 0.025432057678699493
26 0.15277518332004547 0.05 0.023268742486834526
27 0.14643797278404236 0.05 0.021378375589847565
28 0.1406301110982895 0.05 0.019716231152415276
29 0.1352887749671936 0.05 0.01824697107076645
30 0.13035227358341217 0.05 0.01693965122103691
31 0.12577831745147705 0.05 0.015771709382534027
32 0.12150675058364868 0.05 0.01471865363419056
33 0.11751539260149002 0.05 0.013767552562057972
34 0.11378511786460876 0.05 0.012907382100820541
35 0.11026892066001892 0.05 0.012121977284550667
36 0.10695789754390717 0.05 0.011404938995838165
37 0.1038360521197319 0.05 0.010748889297246933
38 0.10087495297193527 0.05 0.010144578292965889
39 0.09808962047100067 0.05 0.009592093527317047
40 0.09542907774448395 0.05 0.009078804403543472
41 0.09288783371448517 0.05 0.008601712062954903
42 0.09048604965209961 0.05 0.008162636309862137
43 0.08819323778152466 0.05 0.007754214573651552
44 0.08599387854337692 0.05 0.007372288964688778
45 0.08390539139509201 0.05 0.007018544245511293
46 0.08189461380243301 0.05 0.006686177104711533
47 0.07997474074363708 0.05 0.006376361008733511
48 0.07812900841236115 0.05 0.006085438188165426
49 0.07635810226202011 0.05 0.005812694784253836
50 0.07465245574712753 0.05 0.005555913783609867
51 0.07301462441682816 0.05 0.005314800422638655
52 0.07143423706293106 0.05 0.005087214522063732
53 0.06991267949342728 0.05 0.004872805904597044
54 0.06844612210988998 0.05 0.004670516587793827
55 0.0670352354645729 0.05 0.004479953553527594
56 0.06567202508449554 0.05 0.004299600142985582
57 0.06435082852840424 0.05 0.0041283415630459785
58 0.06306926161050797 0.05 0.003965543583035469
59 0.06181839480996132 0.05 0.0038098045624792576
60 0.06062522903084755 0.05 0.003664156887680292
61 0.05947224795818329 0.05 0.003526110667735338
62 0.05834197998046875 0.05 0.003393357153981924
63 0.05724867433309555 0.05 0.0032673680689185858
64 0.05619419738650322 0.05 0.0031481117475777864
65 0.05515527352690697 0.05 0.0030327830463647842
66 0.054159440100193024 0.05 0.0029242574237287045
67 0.05318498611450195 0.05 0.0028199758380651474
68 0.05223912000656128 0.05 0.0027205641381442547
69 0.05131765455007553 0.05 0.0026254323311150074
70 0.05041361600160599 0.05 0.002533745253458619
71 0.049549002200365067 0.05 0.0024475809186697006
72 0.04870026931166649 0.05 0.0023644492030143738
73 0.047859515994787216 0.05 0.002283514942973852
74 0.04706087335944176 0.05 0.002207939513027668
75 0.04627176746726036 0.05 0.002134515903890133
76 0.045510925352573395 0.05 0.0020648979116231203
77 0.04475165158510208 0.05 0.001996573992073536
78 0.04401605576276779 0.05 0.001931476523168385
79 0.043297071009874344 0.05 0.0018688923446461558
80 0.04261501505970955 0.05 0.0018104750197380781
81 0.04192229360342026 0.05 0.001752093550749123
82 0.04126143828034401 0.05 0.0016972897574305534
83 0.04062272980809212 0.05 0.0016451497795060277
84 0.039969343692064285 0.05 0.001592653221450746
85 0.039359189569950104 0.05 0.0015443991869688034
86 0.038752418011426926 0.05 0.0014971484197303653
87 0.038150034844875336 0.05 0.0014509656466543674
88 0.0375799760222435 0.05 0.001407927367836237
89 0.03701585531234741 0.05 0.0013659752439707518
90 0.03643983229994774 0.05 0.001323792850598693
91 0.03590276464819908 0.05 0.0012850589118897915
92 0.03536635637283325 0.05 0.001246946630999446
93 0.03485884517431259 0.05 0.001211415627039969
94 0.034338418394327164 0.05 0.001175513956695795
95 0.03384280949831009 0.05 0.0011418263893574476
96 0.03335436061024666 0.05 0.0011091043706983328
97 0.032861750572919846 0.05 0.0010765858460217714
98 0.032406751066446304 0.05 0.0010469795670360327
99 0.031926997005939484 0.05 0.0010162099497392774
tuning, 0, 0.004900333937257528
tuning, 1, 0.004900333937257528
tuning, 2, 0.004778016358613968
tuning, 3, 0.004566875286400318
tuning, 4, 0.004322117194533348
tuning, 5, 0.004098253324627876
tuning, 6, 0.003928309306502342
tuning, 7, 0.0038170218467712402
tuning, 8, 0.003738503670319915
tuning, 9, 0.003644025418907404
tuning, 10, 0.0034920440521091223
tuning, 11, 0.003291551722213626
tuning, 12, 0.003118250984698534
tuning, 13, 0.0030083381570875645
tuning, 14, 0.002954397350549698
tuning, 15, 0.002919333055615425
tuning, 16, 0.002872810233384371
tuning, 17, 0.0028053876012563705
tuning, 18, 0.002729615196585655
tuning, 19, 0.002658149227499962
tuning, 20, 0.0026002207305282354
tuning, 21, 0.002556687220931053
tuning, 22, 0.0025212587788701057
tuning, 23, 0.00248866924084723
tuning, 24, 0.0024552899412810802
tuning, 25, 0.0024178919848054647
tuning, 26, 0.0023781778290867805
tuning, 27, 0.0023368324618786573
tuning, 28, 0.002297561150044203
tuning, 29, 0.0022630603052675724
tuning, 30, 0.00223374180495739
tuning, 31, 0.0022095656022429466
tuning, 32, 0.00218940619379282
tuning, 33, 0.0021722991950809956
tuning, 34, 0.0021572241093963385
tuning, 35, 0.00214350875467062
tuning, 36, 0.002131340093910694
tuning, 37, 0.002120485296472907
tuning, 38, 0.0021110912784934044
tuning, 39, 0.0021028623450547457
tuning, 40, 0.002095844130963087
tuning, 41, 0.002089958405122161
tuning, 42, 0.0020850743167102337
tuning, 43, 0.0020812347065657377
tuning, 44, 0.002078060060739517
tuning, 45, 0.0020759114995598793
tuning, 46, 0.0020742216147482395
tuning, 47, 0.002073185285553336
tuning, 48, 0.002072581322863698
tuning, 49, 0.0020723785273730755

 20%|███████████████████████████████████████████████████████▏                                                                                                                                                                                                                            | 2/10 [01:28<05:54, 44.34s/it]
0, 0.09775816649198532
1, 0.09775816649198532
2, 0.09261530637741089
3, 0.08272566646337509
4, 0.06901423633098602
5, 0.05310669541358948
6, 0.03751780465245247
7, 0.026805546134710312
8, 0.02017272636294365
9, 0.016283314675092697
10, 0.013950981199741364
11, 0.012393906712532043
12, 0.011184921488165855
13, 0.010130416601896286
14, 0.009164665825664997
15, 0.008278260938823223
16, 0.00747683085501194
17, 0.0067647709511220455
18, 0.006139515899121761
19, 0.005596441216766834
20, 0.005129411816596985
21, 0.004732579458504915
22, 0.004399758297950029
23, 0.004124040249735117
24, 0.003895970992743969
25, 0.003705888520926237
26, 0.0035440041683614254
27, 0.003401855006814003
28, 0.0032726116478443146
29, 0.0031516943126916885
30, 0.00303657166659832
31, 0.00292639690451324
32, 0.0028212815523147583
33, 0.0027218330651521683
34, 0.0026289396919310093
35, 0.0025434100534766912
36, 0.002465824130922556
37, 0.0023963931016623974
38, 0.002335242461413145
39, 0.0022822374012321234
40, 0.002237076638266444
41, 0.0021993727423250675
42, 0.0021683964878320694
43, 0.002143594902008772
44, 0.002124316757544875
45, 0.0021100295707583427
46, 0.002099915174767375
47, 0.002093354007229209
48, 0.0020895961206406355
49, 0.0020878887735307217
0 2.6263859272003174 0.05 8.744866371154785
1 2.4673714637756348 0.05 7.7180070877075195
2 2.295247793197632 0.05 6.678751468658447
3 2.008185625076294 0.05 5.1126227378845215
4 1.6408236026763916 0.05 3.4131851196289062
5 1.1903318166732788 0.05 1.7962722778320312
6 0.8549522757530212 0.05 0.9266587495803833
7 0.6396443843841553 0.05 0.5186964273452759
8 0.5149965286254883 0.05 0.3362363576889038
9 0.43813613057136536 0.05 0.24336281418800354
10 0.3830789029598236 0.05 0.1860426515340805
11 0.3402496576309204 0.05 0.14676803350448608
12 0.3061313331127167 0.05 0.11880964040756226
13 0.27880623936653137 0.05 0.09854646772146225
14 0.2564363181591034 0.05 0.08336719870567322
15 0.23783773183822632 0.05 0.07171294838190079
16 0.22214360535144806 0.05 0.06256100535392761
17 0.20871765911579132 0.05 0.055227383971214294
18 0.19708774983882904 0.05 0.049244225025177
19 0.18688856065273285 0.05 0.04427938163280487
20 0.17783516645431519 0.05 0.040093258023262024
21 0.16970455646514893 0.05 0.03651094436645508
22 0.16234850883483887 0.05 0.0334143228828907
23 0.15565280616283417 0.05 0.030714964494109154
24 0.1495233029127121 0.05 0.028343524783849716
25 0.14388532936573029 0.05 0.026246359571814537
26 0.13867464661598206 0.05 0.024379801005125046
27 0.13383767008781433 0.05 0.022708728909492493
28 0.12934206426143646 0.05 0.021208778023719788
29 0.1251266896724701 0.05 0.019848879426717758
30 0.12116770446300507 0.05 0.01861272007226944
31 0.1174367219209671 0.05 0.01748412474989891
32 0.11391884088516235 0.05 0.01645231805741787
33 0.11057812720537186 0.05 0.015501527115702629
34 0.10740736871957779 0.05 0.01462528109550476
35 0.10439366847276688 0.05 0.013816065154969692
36 0.10152316838502884 0.05 0.013066715560853481
37 0.0987783744931221 0.05 0.01236971840262413
38 0.096156045794487 0.05 0.011721665039658546
39 0.09365833550691605 0.05 0.011120617389678955
40 0.09125741571187973 0.05 0.01055777445435524
41 0.08896268904209137 0.05 0.01003348734229803
42 0.08676204830408096 0.05 0.009543236345052719
43 0.08465228974819183 0.05 0.009084760211408138
44 0.08261711150407791 0.05 0.00865318812429905
45 0.08067692071199417 0.05 0.008251534774899483
46 0.07880239933729172 0.05 0.00787254050374031
