
  0%|                                                                                                                       | 0/10 [00:00<?, ?it/s]
0, 0.1364392638206482
1, 0.1364392638206482
2, 0.1297924816608429
3, 0.11694799363613129
4, 0.0989360436797142
5, 0.07756032794713974
6, 0.055496178567409515
7, 0.03879799693822861
8, 0.027129318565130234
9, 0.019633140414953232
10, 0.015203717164695263
  0%|                                                                                                                       | 0/10 [00:05<?, ?it/s]
Traceback (most recent call last):
  File "/home/icl2/khlee/InstaFlow/code/main_reconstruction_exp.py", line 166, in <module>
    main()
  File "/home/icl2/khlee/InstaFlow/code/main_reconstruction_exp.py", line 110, in main
    original_image, recon_image, diff_image, original_latents_visualized, recon_latents_visualized, diff_latents_visualized, error_TOT, error_OTO, error_middle, output_loss, inf_time, inv_time, seed = single_exp(seed, prompt, inversion_prompt,
  File "/home/icl2/anaconda3/lib/python3.10/site-packages/torch/utils/_contextlib.py", line 115, in decorate_context
    return func(*args, **kwargs)
  File "/home/icl2/khlee/InstaFlow/code/main_reconstruction_exp.py", line 47, in single_exp
    recon_images, recon_zo, recon_latents, output_loss = insta_pipe.exact_inversion(
  File "/home/icl2/khlee/InstaFlow/code/pipeline_rf.py", line 923, in exact_inversion
    latents = self.edcorrector(image, decoder_inv_steps=decoder_inv_steps, verbose=verbose)
  File "/home/icl2/khlee/InstaFlow/code/pipeline_rf.py", line 1278, in edcorrector
    print(f"{i}, {loss.item()}")
KeyboardInterrupt
12, 0.011503951624035835
13, 0.010817340575158596