
  0%|                                                                                                                                                                                                                                                                                            | 0/10 [00:00<?, ?it/s]
0, 0.1364392638206482
1, 0.1364392638206482
2, 0.12979243695735931
3, 0.11694826930761337
4, 0.09893612563610077
5, 0.07756021618843079
6, 0.05549616366624832
7, 0.038786571472883224
8, 0.02709094248712063
9, 0.019567571580410004
10, 0.015127427875995636
11, 0.012711873278021812
12, 0.011474767699837685
13, 0.01083323173224926
14, 0.010430624708533287
15, 0.010070531629025936
16, 0.009662712924182415
17, 0.009177426807582378
18, 0.008623216301202774
19, 0.008024800568819046
20, 0.007409910671412945
21, 0.006803958676755428
22, 0.006226561032235622
23, 0.005691855680197477
24, 0.005209304392337799
25, 0.004781194031238556
26, 0.004408461507409811
27, 0.004086588509380817
28, 0.0038106758147478104
29, 0.0035743513144552708
30, 0.003371730912476778
31, 0.0031970939598977566
32, 0.00304580619558692
33, 0.002913923468440771
34, 0.0027983910404145718
35, 0.0026968936435878277
36, 0.002607551170513034
37, 0.002529316348955035
38, 0.0024610087275505066
39, 0.0024020210839807987
40, 0.002351520350202918
41, 0.0023089097812771797
42, 0.0022740131244063377
43, 0.0022456233855336905
44, 0.002223702147603035
45, 0.0022071744315326214
46, 0.002195413690060377
47, 0.002187691628932953
48, 0.002183336764574051
49, 0.0021812941413372755
0 2.4727792739868164 0.05 7.6118879318237305
1 2.305788516998291 0.05 6.618515968322754
2 2.1294448375701904 0.05 5.6448774337768555
3 1.9182254076004028 0.05 4.58058500289917
4 1.6305277347564697 0.05 3.309619188308716
5 1.2721079587936401 0.05 2.0145108699798584
6 0.8867508172988892 0.05 0.9788696765899658
7 0.6099674105644226 0.05 0.46316421031951904
8 0.4836748540401459 0.05 0.29122501611709595
9 0.39814382791519165 0.05 0.19733388721942902
10 0.343479722738266 0.05 0.14686688780784607
11 0.3025047183036804 0.05 0.1139163225889206
12 0.2695814073085785 0.05 0.0904693529009819
13 0.24309363961219788 0.05 0.07356458902359009
14 0.2217501848936081 0.05 0.061213839799165726
15 0.20422667264938354 0.05 0.05192142724990845
16 0.18952496349811554 0.05 0.04471513628959656
17 0.17705053091049194 0.05 0.03902259096503258
18 0.16629861295223236 0.05 0.0344269797205925
19 0.15693600475788116 0.05 0.03065963089466095
20 0.14867736399173737 0.05 0.0275176502764225
21 0.14135120809078217 0.05 0.02487257495522499
22 0.1347954273223877 0.05 0.02261892706155777
23 0.1289045363664627 0.05 0.02068512514233589
24 0.12354294210672379 0.05 0.01900017261505127
25 0.1186627447605133 0.05 0.017528731375932693
26 0.11416933685541153 0.05 0.01622634381055832
27 0.11003434658050537 0.05 0.015072253532707691
28 0.10619058459997177 0.05 0.01403762772679329
29 0.10261949896812439 0.05 0.01310935989022255
30 0.09927959740161896 0.05 0.012269919738173485
31 0.09614347666501999 0.05 0.011506980285048485
32 0.09318909049034119 0.05 0.010810649953782558
33 0.09041184931993484 0.05 0.010175889357924461
34 0.08777536451816559 0.05 0.00959106907248497
35 0.08529002964496613 0.05 0.009055621922016144
36 0.08291498571634293 0.05 0.008558305911719799
37 0.08066225051879883 0.05 0.008099576458334923
38 0.07851482927799225 0.05 0.007674056570976973
39 0.07645928859710693 0.05 0.007277499884366989
40 0.07449350506067276 0.05 0.006908097304403782
41 0.0726080983877182 0.05 0.0065628401935100555
42 0.07080278545618057 0.05 0.006240542978048325
43 0.06906109303236008 0.05 0.005937295500189066
44 0.067398302257061 0.05 0.005654830485582352
45 0.06578165292739868 0.05 0.005386805161833763
46 0.06423323601484299 0.05 0.0051361918449401855
47 0.06274284422397614 0.05 0.004900609143078327
48 0.06129218265414238 0.05 0.00467661814764142
49 0.05990219861268997 0.05 0.0044669099152088165
50 0.058569952845573425 0.05 0.004270427860319614
51 0.05725294351577759 0.05 0.004080536775290966
52 0.05599172040820122 0.05 0.0039027375169098377
53 0.05476903170347214 0.05 0.0037341504357755184
54 0.05358712375164032 0.05 0.003574724541977048
55 0.05243688449263573 0.05 0.0034229096490889788
56 0.05132371559739113 0.05 0.0032791243866086006
57 0.050237562507390976 0.05 0.003141801804304123
58 0.04919307306408882 0.05 0.0030125179328024387
59 0.04817391559481621 0.05 0.0028889868408441544
60 0.0471775084733963 0.05 0.002770713996142149
61 0.04621818661689758 0.05 0.002659178338944912
62 0.04527384415268898 0.05 0.0025516224559396505
63 0.04436575621366501 0.05 0.0024502896703779697
64 0.043476399034261703 0.05 0.002353037241846323
65 0.042612913995981216 0.05 0.0022604982368648052
66 0.04177510738372803 0.05 0.002172485226765275
67 0.040956418961286545 0.05 0.002088169101625681
68 0.040158435702323914 0.05 0.0020075910724699497
69 0.03938332945108414 0.05 0.0019308411283418536
70 0.038624756038188934 0.05 0.0018571763066574931
71 0.037885744124650955 0.05 0.00178678915835917
72 0.037167780101299286 0.05 0.0017197087872773409
73 0.03646915778517723 0.05 0.0016556677874177694
74 0.035781774669885635 0.05 0.0015938428696244955
75 0.03511429578065872 0.05 0.001534933689981699
76 0.03446566313505173 0.05 0.0014787507243454456
77 0.033831097185611725 0.05 0.0014248000225052238
78 0.033212561160326004 0.05 0.001373176695778966
79 0.032606255263090134 0.05 0.0013234986690804362
80 0.03201473131775856 0.05 0.0012759140226989985
81 0.03143922612071037 0.05 0.0012304541887715459
82 0.030879803001880646 0.05 0.0011870546732097864
83 0.030322212725877762 0.05 0.0011445728596299887
84 0.02979176864027977 0.05 0.001104877912439406
85 0.029263971373438835 0.05 0.0010660761035978794
86 0.02875332161784172 0.05 0.0010291951475664973
87 0.028249572962522507 0.05 0.0009934487752616405
88 0.02775854617357254 0.05 0.0009592131245881319
89 0.02728266268968582 0.05 0.0009266062406823039
90 0.0268122386187315 0.05 0.0008949274779297411
91 0.026354560628533363 0.05 0.0008646359201520681
92 0.025906460359692574 0.05 0.0008354834862984717
93 0.025474339723587036 0.05 0.0008078441023826599
94 0.0250442735850811 0.05 0.0007807977963238955
95 0.02462443709373474 0.05 0.0007548389257863164
96 0.024214640259742737 0.05 0.0007299241842702031
97 0.023811381310224533 0.05 0.0007058149203658104
98 0.02342045120894909 0.05 0.0006828294135630131
99 0.023033862933516502 0.05 0.0006604733061976731
100 0.02266020141541958 0.05 0.0006392182549461722
101 0.0222888495773077 0.05 0.0006184391677379608
102 0.02192956581711769 0.05 0.0005986620672047138
103 0.0215811375528574 0.05 0.0005797895137220621
104 0.021231940016150475 0.05 0.0005611785454675555
105 0.02089696191251278 0.05 0.0005436106584966183
106 0.020561931654810905 0.05 0.0005263196071609855
107 0.02023371309041977 0.05 0.0005096509703435004
108 0.019915061071515083 0.05 0.0004937248304486275
109 0.019604265689849854 0.05 0.00047843478387221694
110 0.019299494102597237 0.05 0.00046367489267140627
111 0.01899833045899868 0.05 0.00044931669253855944
112 0.018703753128647804 0.05 0.0004354910633992404
113 0.018416553735733032 0.05 0.00042221962939947844
114 0.0181354321539402 0.05 0.00040942797204479575
115 0.017856774851679802 0.05 0.00039694260340183973
116 0.017586655914783478 0.05 0.0003850243811029941
117 0.01731850765645504 0.05 0.00037337272078730166
118 0.017057500779628754 0.05 0.0003622033691499382
119 0.016800975427031517 0.05 0.000351391063304618
120 0.016557125374674797 0.05 0.00034126482205465436
121 0.016304057091474533 0.05 0.00033091241493821144
122 0.016066737473011017 0.05 0.0003213490126654506
123 0.015823064371943474 0.05 0.00031167565612122416
124 0.015591437928378582 0.05 0.0003026174963451922
125 0.015369805507361889 0.05 0.0002940752310678363
126 0.015140621922910213 0.05 0.0002853705082088709
127 0.014921175315976143 0.05 0.00027715819305740297
128 0.014700478874146938 0.05 0.0002690200926735997
129 0.014491977170109749 0.05 0.00026144296862185
130 0.0142825311049819 0.05 0.00025394055410288274
131 0.014077438041567802 0.05 0.00024669989943504333
132 0.013883060775697231 0.05 0.00023993419017642736
133 0.013679302297532558 0.05 0.00023294295533560216
134 0.013491532765328884 0.05 0.00022659183014184237
135 0.013298398815095425 0.05 0.0002201508468715474
136 0.013107922859489918 0.05 0.00021388950699474663
137 0.012925602495670319 0.05 0.0002079808182315901
138 0.012751135043799877 0.05 0.00020240413141436875
139 0.012571385130286217 0.05 0.0001967378775589168
140 0.012395661324262619 0.05 0.00019127628183923662
141 0.012224352918565273 0.05 0.00018602590716909617
142 0.012058899737894535 0.05 0.0001810243702493608
143 0.011892616748809814 0.05 0.00017606641631573439
144 0.011732049286365509 0.05 0.00017134421796072274
145 0.011569769121706486 0.05 0.00016663686255924404
146 0.011416484601795673 0.05 0.00016225065337494016
147 0.011261187493801117 0.05 0.00015786653966642916
148 0.011113312095403671 0.05 0.00015374772192444652
149 0.0109629575163126 0.05 0.00014961569104343653
150 0.010815662331879139 0.05 0.00014562232536263764
151 0.010669478215277195 0.05 0.00014171247312333435
152 0.010526634752750397 0.05 0.00013794336700811982
153 0.010390927083790302 0.05 0.00013440959446597844
154 0.010255132801830769 0.05 0.00013091946311760694
155 0.010118329897522926 0.05 0.00012744986452162266
156 0.009987381286919117 0.05 0.00012417235120665282
157 0.009867080487310886 0.05 0.00012119897291995585
158 0.009729237295687199 0.05 0.0001178363454528153
159 0.009606054052710533 0.05 0.00011487134906928986
160 0.00948072224855423 0.05 0.00011189341603312641
161 0.009359287098050117 0.05 0.0001090453879442066
162 0.009241089224815369 0.05 0.00010630849283188581
163 0.009119902737438679 0.05 0.00010353855032008141
164 0.009009034372866154 0.05 0.00010103646491188556
165 0.008893188089132309 0.05 9.845473687164485e-05
166 0.008778318762779236 0.05 9.59277676884085e-05
167 0.008670340292155743 0.05 9.358234819956124e-05
168 0.008558318018913269 0.05 9.117978333961219e-05
169 0.008451728150248528 0.05 8.892270852811635e-05
170 0.008349549025297165 0.05 8.678559970576316e-05
171 0.00824647769331932 0.05 8.465618884656578e-05
172 0.00813933927565813 0.05 8.247077494161204e-05
173 0.008040247485041618 0.05 8.0474914284423e-05
174 0.007946395315229893 0.05 7.860714686103165e-05
175 0.007845116779208183 0.05 7.661618292331696e-05
176 0.007749304175376892 0.05 7.475617894669995e-05
177 0.0076547651551663876 0.05 7.294330862350762e-05
178 0.0075661297887563705 0.05 7.126385753508657e-05
179 0.007469837088137865 0.05 6.946147186681628e-05
180 0.007381031289696693 0.05 6.781969568692148e-05
181 0.00729760667309165 0.05 6.629527342738584e-05
182 0.00720149464905262 0.05 6.456051778513938e-05
183 0.007122645620256662 0.05 6.315451173577458e-05
184 0.007033799309283495 0.05 6.158878386486322e-05
185 0.006948189809918404 0.05 6.0098689573351294e-05
186 0.0068672215566039085 0.05 5.87061804253608e-05
187 0.006784052588045597 0.05 5.7292803830932826e-05
188 0.006710394285619259 0.05 5.6055439927149564e-05
189 0.006625204812735319 0.05 5.464121204568073e-05
190 0.00654692854732275 0.05 5.335767855285667e-05
191 0.006475736387073994 0.05 5.220355524215847e-05
192 0.006395281292498112 0.05 5.091445200378075e-05
193 0.006321042310446501 0.05 4.973923205398023e-05
194 0.006249754223972559 0.05 4.862364585278556e-05
195 0.006181125529110432 0.05 4.756163980346173e-05
196 0.00610387185588479 0.05 4.6380184357985854e-05
197 0.006035948172211647 0.05 4.535369953373447e-05
198 0.005966192577034235 0.05 4.4311480451142415e-05
199 0.0059020305052399635 0.05 4.336352867539972e-05
200 0.00583267118781805 0.05 4.235032247379422e-05
201 0.005765239708125591 0.05 4.137675205129199e-05
202 0.0056980871595442295 0.05 4.041846841573715e-05
203 0.005639743525534868 0.05 3.959500463679433e-05
204 0.00557095417752862 0.05 3.863499659928493e-05
205 0.005509057082235813 0.05 3.7781239370815456e-05
206 0.005442845169454813 0.05 3.687853313749656e-05
207 0.005390803329646587 0.05 3.61766797141172e-05
208 0.005329810548573732 0.05 3.5362685594009236e-05
209 0.005273660644888878 0.05 3.462151289568283e-05
210 0.005209024995565414 0.05 3.377805114723742e-05
211 0.005152597092092037 0.05 3.3050197089323774e-05
212 0.005094002466648817 0.05 3.230279253330082e-05
213 0.005036498885601759 0.05 3.157760511385277e-05
214 0.004982728511095047 0.05 3.0906950996723026e-05
215 0.004926163237541914 0.05 3.0209206670406274e-05
216 0.004876439925283194 0.05 2.9602437280118465e-05
217 0.004820373374968767 0.05 2.892564589274116e-05
218 0.004771243780851364 0.05 2.8339025448076427e-05
219 0.004716779105365276 0.05 2.7695725293597206e-05
220 0.004665697459131479 0.05 2.709910404519178e-05
221 0.00461610546335578 0.05 2.6526086003286764e-05
222 0.004564248491078615 0.05 2.5933448341675103e-05
223 0.004520308692008257 0.05 2.543652954045683e-05
224 0.004470801446586847 0.05 2.488240716047585e-05
225 0.004423183389008045 0.05 2.4355194909730926e-05
226 0.004379060585051775 0.05 2.3871712983236648e-05
227 0.0043326979503035545 0.05 2.336891702725552e-05
228 0.004280451685190201 0.05 2.2808719222666696e-05
229 0.004237079527229071 0.05 2.2348838683683425e-05
230 0.0041926768608391285 0.05 2.1882879082113504e-05
231 0.0041474634781479836 0.05 2.1413461581687443e-05
232 0.004109150730073452 0.05 2.1019670384703204e-05
233 0.004061323124915361 0.05 2.0533203496597707e-05
234 0.004020363558083773 0.05 2.0121125999139622e-05
235 0.00398077629506588 0.05 1.9726827304111794e-05
236 0.003935887478291988 0.05 1.928443816723302e-05
237 0.0038959605153650045 0.05 1.8895167158916593e-05
238 0.003853172529488802 0.05 1.848240935942158e-05
239 0.0038168546743690968 0.05 1.8135640857508406e-05
240 0.0037750094197690487 0.05 1.774016891431529e-05
241 0.003734333673492074 0.05 1.735992918838747e-05
242 0.003700006054714322 0.05 1.704223541310057e-05
243 0.003662006463855505 0.05 1.6693978977855295e-05
244 0.0036241693887859583 0.05 1.635078660910949e-05
245 0.003586445702239871 0.05 1.601217081770301e-05
246 0.003547326195985079 0.05 1.56647693074774e-05
247 0.0035163178108632565 0.05 1.5392102795885876e-05
248 0.003478521713986993 0.05 1.5062989405123517e-05
249 0.003444686532020569 0.05 1.477138175687287e-05
250 0.003410288132727146 0.05 1.4477841432380956e-05
251 0.0033735684119164944 0.05 1.4167744666337967e-05
252 0.0033396712969988585 0.05 1.3884465261071455e-05
253 0.00331661244854331 0.05 1.3693394066649489e-05
254 0.003274703398346901 0.05 1.3349517757887952e-05
255 0.003242109902203083 0.05 1.3085104001220316e-05
256 0.003209179500117898 0.05 1.282063931284938e-05
257 0.0031765184830874205 0.05 1.2561006769828964e-05
258 0.0031494847498834133 0.05 1.2348115888016764e-05
259 0.003116721985861659 0.05 1.2092547876818571e-05
260 0.0030839014798402786 0.05 1.1839209037134424e-05
261 0.0030527240596711636 0.05 1.160103602160234e-05
262 0.0030234740115702152 0.05 1.1379787792975549e-05
263 0.002995964139699936 0.05 1.1173646271345206e-05
264 0.0029649166390299797 0.05 1.0943258530460298e-05
265 0.002935292199254036 0.05 1.072566919901874e-05
266 0.0029085874557495117 0.05 1.0531395673751831e-05
267 0.0028790009673684835 0.05 1.0318232853023801e-05
268 0.0028514352161437273 0.05 1.0121589184564073e-05
269 0.0028238643426448107 0.05 9.926801794790663e-06
270 0.0027970592491328716 0.05 9.739238521433435e-06
271 0.002768777310848236 0.05 9.543280611978844e-06
272 0.002743577817454934 0.05 9.370359293825459e-06
273 0.0027150199748575687 0.05 9.176303137792274e-06
274 0.0026891883462667465 0.05 9.00252052815631e-06
275 0.0026617487892508507 0.05 8.819741196930408e-06
276 0.002638074103742838 0.05 8.66354639583733e-06
277 0.0026123791467398405 0.05 8.495600923197344e-06
278 0.0025889079552143812 0.05 8.343627996509895e-06
279 0.002564398804679513 0.05 8.186397280951496e-06
280 0.002543490147218108 0.05 8.053446435951628e-06
281 0.0025166242849081755 0.05 7.884214937803335e-06
282 0.0024918464478105307 0.05 7.729728167760186e-06
283 0.0024805183056741953 0.05 7.659607945242897e-06
284 0.002445157850161195 0.05 7.442786227329634e-06
285 0.002422581659629941 0.05 7.30598003428895e-06
286 0.002399809891358018 0.05 7.1692775236442685e-06
287 0.0023769487161189318 0.05 7.033336260064971e-06
288 0.0023546763695776463 0.05 6.902145287313033e-06
289 0.0023339330218732357 0.05 6.7810738073603716e-06
290 0.002316318219527602 0.05 6.679103535134345e-06
291 0.002288318471983075 0.05 6.518603186123073e-06
292 0.0022705895826220512 0.05 6.417989425244741e-06
293 0.0022481302730739117 0.05 6.291651516221464e-06
294 0.0022271303460001945 0.05 6.174658210511552e-06
295 0.0022111719008535147 0.05 6.086486791900825e-06
296 0.002188064157962799 0.05 5.959938789601438e-06
297 0.0021668358240276575 0.05 5.8448549680178985e-06
298 0.0021611349657177925 0.05 5.814139967696974e-06
299 0.002127804094925523 0.05 5.636182322632521e-06
300 0.0021054306998848915 0.05 5.518278612726135e-06
301 0.0020857255440205336 0.05 5.41546751264832e-06
302 0.0020714637357741594 0.05 5.341660653357394e-06
303 0.0020515304058790207 0.05 5.239352049102308e-06
304 0.002031724201515317 0.05 5.138675987836905e-06
305 0.002012785756960511 0.05 5.043323199060978e-06
306 0.0019960838835686445 0.05 4.959973011864349e-06
307 0.0019782993476837873 0.05 4.8719830374466255e-06
308 0.0019588968716561794 0.05 4.776885361934546e-06
309 0.0019419706659391522 0.05 4.69469068775652e-06
310 0.001924979849718511 0.05 4.61289982922608e-06
311 0.0019160978263244033 0.05 4.570430064632092e-06
312 0.001889862585812807 0.05 4.446130333235487e-06
313 0.0018730520969256759 0.05 4.367384462966584e-06
314 0.0018553973641246557 0.05 4.285441718820948e-06
315 0.0018416907405480742 0.05 4.222358256811276e-06
316 0.0018226202810183167 0.05 4.135367817070801e-06
317 0.00180918350815773 0.05 4.074618118465878e-06
318 0.0017916422802954912 0.05 3.995989118266152e-06
319 0.0017746991943567991 0.05 3.920768904208671e-06
320 0.001758587546646595 0.05 3.849901531793876e-06
321 0.001743863569572568 0.05 3.7857043935218826e-06
322 0.0017303123604506254 0.05 3.7270972370606614e-06
323 0.0017177625559270382 0.05 3.6732285479956772e-06
324 0.001697254367172718 0.05 3.5860434763890225e-06
325 0.0016842781333252788 0.05 3.531419451974216e-06
326 0.001682678353972733 0.05 3.5247139749117196e-06
327 0.0016542464727535844 0.05 3.406607902434189e-06
328 0.0016379756852984428 0.05 3.3399242056475487e-06
329 0.001628034166060388 0.05 3.299504442111356e-06
330 0.00161116779781878 0.05 3.2314933378074784e-06
331 0.0015991738764569163 0.05 3.1835602385399397e-06
332 0.0015881205908954144 0.05 3.139703267152072e-06
333 0.0015772780170664191 0.05 3.096978389294236e-06
334 0.0015563381602987647 0.05 3.0152937142702285e-06
335 0.0015450078062713146 0.05 2.971550202346407e-06
336 0.0015295145567506552 0.05 2.912251602538163e-06
337 0.0015181251801550388 0.05 2.869041964004282e-06
338 0.001507254783064127 0.05 2.8281019694986753e-06
339 0.0014916496584191918 0.05 2.769844513750286e-06
340 0.0014838133938610554 0.05 2.7408182177168783e-06
341 0.0014671360841020942 0.05 2.6795535177370766e-06
342 0.0014519640244543552 0.05 2.624420631036628e-06
343 0.0014445360284298658 0.05 2.597636921564117e-06
344 0.0014273440465331078 0.05 2.5361737243656535e-06
345 0.0014178392011672258 0.05 2.502509005353204e-06
346 0.0014027553843334317 0.05 2.4495457182638347e-06
347 0.0013912292197346687 0.05 2.4094565560517367e-06
348 0.0013834760757163167 0.05 2.382676029810682e-06
349 0.0013671023771166801 0.05 2.3266111384145916e-06
350 0.0013568124268203974 0.05 2.291718828928424e-06
351 0.0013471131678670645 0.05 2.2590709249925567e-06
352 0.0013381410390138626 0.05 2.229079200333217e-06
353 0.0013316404074430466 0.05 2.2074741536926012e-06
354 0.001315506175160408 0.05 2.1543064576690085e-06
355 0.0013013073476031423 0.05 2.108052512994618e-06
356 0.0012908894568681717 0.05 2.074435087706661e-06
