
  0%|                                                                                                                                                                                                                                                                                                               | 0/10 [00:00<?, ?it/s]
0, 0.1364392638206482
1, 0.1364392638206482
2, 0.12979212403297424
3, 0.11694826185703278
4, 0.09893618524074554
5, 0.07756026089191437
6, 0.055496156215667725
7, 0.0387730747461319
8, 0.027045462280511856
9, 0.01948978751897812
10, 0.015038183890283108
11, 0.012640556320548058
12, 0.011447656899690628
13, 0.010865245014429092
14, 0.010523626580834389
15, 0.0102155189961195
16, 0.009841326624155045
17, 0.009367160499095917
18, 0.008805050514638424
19, 0.00818093866109848
20, 0.007529660128057003
21, 0.006880253553390503
22, 0.006261878646910191
23, 0.00569708039984107
24, 0.005201042164117098
25, 0.004777941852807999
26, 0.004425513558089733
27, 0.004136780742555857
28, 0.003902177093550563
29, 0.003708960022777319
30, 0.003545287763699889
31, 0.003400760469958186
32, 0.0032659233547747135
33, 0.0031345412135124207
34, 0.0030029870104044676
35, 0.002868897281587124
36, 0.0027321274392306805
37, 0.002593482378870249
38, 0.002454813802614808
39, 0.0023181613069027662
40, 0.002185933059081435
41, 0.0020598494447767735
42, 0.001941706403158605
43, 0.0018322865944355726
44, 0.0017320984043180943
45, 0.0016413533594459295
46, 0.001559525029733777
47, 0.0014860550872981548
48, 0.0014202710008248687
49, 0.0013612385373562574
50, 0.0013079410418868065
51, 0.0012596865417435765
52, 0.0012156306765973568
53, 0.0011752659920603037
54, 0.001137915882281959
55, 0.001103400718420744
56, 0.0010713012889027596
57, 0.0010414288844913244
58, 0.0010135991033166647
59, 0.0009876942494884133
60, 0.000963578640948981
61, 0.0009412840008735657
62, 0.0009204980451613665
63, 0.000901325955055654
64, 0.0008836134220473468
65, 0.0008672596304677427
66, 0.0008522137068212032
67, 0.0008383334497921169
68, 0.000825601106043905
69, 0.0008138618431985378
70, 0.0008031012257561088
71, 0.00079323974205181
72, 0.0007841582410037518
73, 0.0007758419960737228
74, 0.0007682523573748767
75, 0.0007613151101395488
76, 0.0007549120928160846
77, 0.0007491281721740961
78, 0.0007438533357344568
79, 0.0007390605751425028
80, 0.0007347280625253916
81, 0.0007308153435587883
82, 0.0007273469818755984
83, 0.0007242332212626934
84, 0.000721439253538847
85, 0.0007189319003373384
86, 0.000716830079909414
87, 0.0007149734301492572
88, 0.0007133383769541979
89, 0.000711980159394443
90, 0.0007108484278433025
91, 0.0007098887581378222
92, 0.000709118670783937
93, 0.0007084898534230888
94, 0.0007080094655975699
95, 0.0007076591136865318
96, 0.0007074205204844475
97, 0.0007072808220982552
98, 0.0007071852451190352
99, 0.0007071446161717176
0 2.419100046157837 0.5 7.6404948234558105
1 1.358643889427185 0.5 2.4100446701049805
2 1.1855412721633911 0.5 1.835046410560608
3 1.2856414318084717 0.5 2.158010244369507
4 1.478057861328125 0.5 2.852309226989746
5 1.4490245580673218 0.5 2.7413551807403564
6 1.3666863441467285 0.5 2.4386610984802246
7 1.3931472301483154 0.5 2.5340068340301514
8 1.4867544174194336 0.5 2.885972499847412
9 1.4799129962921143 0.5 2.859473705291748
10 1.4011436700820923 0.5 2.5631797313690186
11 1.4344221353530884 0.5 2.6863815784454346
12 1.502638816833496 0.5 2.947969436645508
13 1.5164763927459717 0.5 3.002513885498047
14 1.4587092399597168 0.5 2.7781214714050293
15 1.4586493968963623 0.5 2.777893543243408
16 1.51453697681427 0.5 2.9948394298553467
17 1.5106927156448364 0.5 2.9796555042266846
18 1.4609342813491821 0.25 2.7866034507751465
19 1.4721776247024536 0.25 2.8296597003936768
20 0.732410728931427 0.25 0.7003628611564636
21 0.5186578035354614 0.25 0.3512170910835266
22 0.40541872382164 0.25 0.21459589898586273
23 0.4359258711338043 0.25 0.24810704588890076
24 0.4816378057003021 0.25 0.3028690814971924
25 0.5471965670585632 0.25 0.3909313678741455
26 0.5781203508377075 0.25 0.43636536598205566
27 0.6055595874786377 0.25 0.4787706434726715
28 0.6558159589767456 0.25 0.5615361928939819
29 0.6673898696899414 0.25 0.5815311670303345
30 0.68055260181427 0.25 0.6046960353851318
31 0.6919228434562683 0.25 0.6250706315040588
32 0.6984323263168335 0.25 0.6368870735168457
33 0.7135279178619385 0.25 0.6647152900695801
34 0.7146020531654358 0.25 0.6667182445526123
35 0.7278540730476379 0.25 0.6916754245758057
36 0.752841591835022 0.25 0.7399816513061523
37 0.7561413645744324 0.25 0.7464827299118042
38 0.7726503610610962 0.125 0.7794347405433655
39 0.7562985420227051 0.125 0.7467930912971497
40 0.26630866527557373 0.125 0.09259433299303055
41 0.162632554769516 0.125 0.03453255444765091
42 0.11818699538707733 0.125 0.01823698729276657
43 0.10688957571983337 0.125 0.014917101711034775
44 0.094628244638443 0.125 0.011691099032759666
45 0.1022573783993721 0.125 0.013652212917804718
46 0.1084655150771141 0.125 0.015360208228230476
47 0.11807578057050705 0.125 0.018202684819698334
48 0.1377047747373581 0.125 0.024757787585258484
49 0.15447789430618286 0.125 0.03115633875131607
50 0.18182487785816193 0.125 0.04316387325525284
51 0.19836454093456268 0.125 0.05137381702661514
52 0.21875318884849548 0.125 0.062477342784404755
53 0.22560347616672516 0.125 0.06645159423351288
54 0.23565933108329773 0.125 0.07250752300024033
55 0.23507942259311676 0.125 0.07215110212564468
56 0.23795534670352936 0.125 0.07392728328704834
57 0.2350478619337082 0.125 0.07213173806667328
58 0.23445390164852142 0.125 0.0717676430940628
59 0.2321278601884842 0.125 0.07035067677497864
60 0.23187284171581268 0.0625 0.07019618153572083
61 0.2308305948972702 0.0625 0.06956654787063599
62 0.06143863871693611 0.0625 0.004928297363221645
63 0.04593420401215553 0.0625 0.0027547753416001797
64 0.0402846485376358 0.0625 0.002118814503774047
65 0.03600892424583435 0.0625 0.001692911027930677
66 0.03261243551969528 0.0625 0.0013886098749935627
67 0.029865071177482605 0.0625 0.0011645036283880472
68 0.027598151937127113 0.0625 0.0009944289922714233
69 0.025724146515130997 0.0625 0.0008639641455374658
70 0.02414112724363804 0.0625 0.0007609022432006896
71 0.022799909114837646 0.0625 0.0006787034217268229
72 0.02163662761449814 0.0625 0.0006112135015428066
73 0.020615408197045326 0.0625 0.0005548782064579427
74 0.019709711894392967 0.0625 0.0005071943160146475
75 0.018902502954006195 0.0625 0.0004665008164010942
76 0.018167700618505478 0.0625 0.00043093692511320114
77 0.017502985894680023 0.0625 0.000399979850044474
78 0.01689639873802662 0.0625 0.00037273659836500883
79 0.016332412138581276 0.0625 0.00034826862975023687
80 0.015798697248101234 0.0625 0.0003258789365645498
81 0.015313376672565937 0.0625 0.0003061651368625462
82 0.014858539216220379 0.0625 0.0002882477710954845
83 0.014427948743104935 0.0625 0.00027178338496014476
84 0.014017462730407715 0.0625 0.0002565385075286031
85 0.013633506372570992 0.0625 0.00024267715343739837
86 0.013274380937218666 0.0625 0.00023006065748631954
87 0.012922991998493671 0.0625 0.00021804188145324588
88 0.012590879574418068 0.0625 0.00020697878790087998
89 0.012279929593205452 0.0625 0.0001968817668966949
90 0.011983310803771019 0.0625 0.00018748536240309477
91 0.01169457845389843 0.0625 0.00017855949408840388
92 0.011418705806136131 0.0625 0.00017023447435349226
93 0.011155418120324612 0.0625 0.00016247457824647427
94 0.010901492089033127 0.0625 0.00015516209532506764
95 0.010662666521966457 0.0625 0.00014843809185549617
96 0.010427943430840969 0.0625 0.0001419747422914952
97 0.010204692371189594 0.0625 0.00013596078497357666
98 0.009988617151975632 0.0625 0.00013026403030380607
99 0.009777492843568325 0.0625 0.00012481556041166186

 10%|█████████████████████████████▌                                                                                                                                                                                                                                                                         | 1/10 [00:41<06:10, 41.19s/it]
0, 0.1123598963022232
1, 0.1123598963022232
2, 0.10478799045085907
3, 0.09046928584575653
4, 0.07124534249305725
5, 0.050200365483760834
6, 0.03146939352154732
7, 0.020330242812633514
8, 0.014868451282382011
9, 0.012927500531077385
10, 0.012790600769221783
11, 0.013342328369617462
12, 0.013981680385768414
13, 0.014439217746257782
14, 0.014627556316554546
15, 0.014555998146533966
16, 0.014270532876253128
17, 0.01382843405008316
18, 0.013284387066960335
19, 0.01267931517213583
20, 0.01204222347587347
21, 0.011394111439585686
22, 0.010749254375696182
23, 0.010116180405020714
24, 0.009504484944045544
25, 0.008919572457671165
26, 0.00836870726197958
27, 0.007856933400034904
28, 0.007388046942651272
29, 0.006962927989661694
30, 0.0065818605944514275
31, 0.006242235191166401
32, 0.00593919213861227
33, 0.005667877849191427
34, 0.005423444323241711
35, 0.00520057138055563
36, 0.004995050840079784
37, 0.004803510382771492
38, 0.004623738117516041
39, 0.004454493056982756
40, 0.004294922109693289
41, 0.00414429372176528
42, 0.004002264700829983
43, 0.0038687214255332947
44, 0.003743578214198351
45, 0.003626998048275709
46, 0.003518875688314438
47, 0.0034187943674623966
48, 0.0033264155499637127
49, 0.0032414267770946026
50, 0.0031635332852602005
51, 0.003092061262577772
52, 0.003026607446372509
53, 0.00296647846698761
54, 0.002911199349910021
55, 0.0028602981474250555
56, 0.0028132349252700806
57, 0.0027695349417626858
58, 0.0027289201971143484
59, 0.0026911520399153233
60, 0.00265591312199831
61, 0.0026230914518237114
62, 0.0025924677029252052
63, 0.002563928719609976
64, 0.0025372509844601154
65, 0.0025123865343630314
66, 0.0024892070796340704
67, 0.002467567101120949
68, 0.002447399776428938
69, 0.0024286885745823383
70, 0.0024112886749207973
71, 0.0023951695766299963
72, 0.0023802006617188454
73, 0.0023663840256631374
74, 0.00235361629165709
75, 0.002341862767934799
76, 0.002331061288714409
77, 0.002321157604455948
78, 0.0023121412377804518
79, 0.0023038422223180532
80, 0.0022963215596973896
81, 0.002289525931701064
82, 0.002283437643200159
83, 0.0022779705468565226
84, 0.0022730499040335417
85, 0.0022687511518597603
86, 0.0022649536840617657
87, 0.002261593472212553
88, 0.0022587417624890804
89, 0.0022562872618436813
90, 0.0022542173974215984
91, 0.0022524972446262836
92, 0.002251151716336608
93, 0.002250043209642172
94, 0.002249192213639617
95, 0.00224855775013566
96, 0.0022481284104287624
97, 0.0022478511091321707
98, 0.0022476762533187866
99, 0.0022475882433354855
0 2.7173819541931152 0.5 8.139806747436523
1 1.5222686529159546 0.5 2.5544381141662598
2 1.5895289182662964 0.5 2.7851569652557373
3 1.6554242372512817 0.5 3.0208652019500732
4 1.8257333040237427 0.5 3.6744089126586914
5 1.7213208675384521 0.5 3.266152858734131
6 1.6318244934082031 0.5 2.9353485107421875
7 1.6693319082260132 0.5 3.0718369483947754
8 1.80349862575531 0.5 3.585455894470215
9 1.7091447114944458 0.5 3.2201085090637207
10 1.6136454343795776 0.5 2.8703112602233887
11 1.6661428213119507 0.5 3.0601112842559814
12 1.7958571910858154 0.5 3.5551373958587646
13 1.6959811449050903 0.5 3.1706976890563965
14 1.6320571899414062 0.5 2.936185598373413
15 1.669688105583191 0.5 3.073148250579834
16 1.783237338066101 0.5 3.505347728729248
17 1.6882071495056152 0.25 3.1416969299316406
18 1.6520333290100098 0.25 3.008502244949341
19 0.896493136882782 0.25 0.8859448432922363
20 0.5992246866226196 0.25 0.3958148956298828
21 0.5431265830993652 0.25 0.3251733183860779
22 0.7151992321014404 0.25 0.5638542771339417
23 0.7711069583892822 0.25 0.655453622341156
24 0.7703575491905212 0.25 0.6541802883148193
25 0.7907544374465942 0.25 0.6892805695533752
26 0.7859144806861877 0.25 0.6808687448501587
27 0.7874140739440918 0.25 0.6834694743156433
28 0.8079133033752441 0.25 0.7195190191268921
29 0.8062704801559448 0.25 0.7165957689285278
30 0.7887816429138184 0.25 0.6858456134796143
31 0.7964625358581543 0.25 0.6992677450180054
32 0.8134289979934692 0.25 0.729377031326294
33 0.806658148765564 0.25 0.71728515625
34 0.7930340766906738 0.25 0.6932605504989624
35 0.789991021156311 0.25 0.6879504323005676
36 0.8003087043762207 0.25 0.7060376405715942
37 0.8029804229736328 0.125 0.7107595801353455
38 0.7934785485267639 0.125 0.694037914276123
39 0.29312965273857117 0.125 0.09471793472766876
40 0.15422040224075317 0.125 0.026217810809612274
41 0.11356473714113235 0.125 0.014216731302440166
42 0.0897444561123848 0.125 0.008878262713551521
43 0.07612757384777069 0.125 0.006388469133526087
44 0.06590454280376434 0.125 0.004787882324308157
45 0.05870671197772026 0.125 0.003799166064709425
46 0.05339884012937546 0.125 0.0031432320829480886
47 0.04862082377076149 0.125 0.0026058978401124477
48 0.04583107680082321 0.125 0.0023154369555413723
49 0.04221826419234276 0.125 0.0019647779408842325
50 0.04088425263762474 0.125 0.0018425738671794534
51 0.037988804280757904 0.125 0.001590830972418189
52 0.03762597218155861 0.125 0.0015605880180373788
53 0.035218484699726105 0.125 0.0013672695495188236
54 0.035564061254262924 0.125 0.001394233200699091
55 0.03353428468108177 0.125 0.0012396264355629683
56 0.034129202365875244 0.125 0.0012840003473684192
57 0.03228618577122688 0.125 0.0011490692850202322
58 0.03309352323412895 0.125 0.001207254477776587
59 0.03140510246157646 0.125 0.0010872094426304102
60 0.032090406864881516 0.125 0.0011351760476827621
61 0.03050220012664795 0.125 0.0010255931410938501
62 0.03120337426662445 0.125 0.0010732869850471616
63 0.029766036197543144 0.125 0.0009766857838258147
64 0.03022932820022106 0.125 0.0010073252487927675
65 0.028730059042572975 0.125 0.0009098835289478302
66 0.028998754918575287 0.125 0.0009269823785871267
67 0.027580782771110535 0.125 0.0008385442197322845
68 0.02773222327232361 0.125 0.0008477780502289534
69 0.026395870372653008 0.125 0.0007680415874347091
70 0.026512479409575462 0.125 0.0007748425705358386
71 0.025357035920023918 0.125 0.0007087772246450186
72 0.025459080934524536 0.125 0.0007144934497773647
73 0.024419011548161507 0.125 0.0006573080318048596
74 0.024488577619194984 0.125 0.0006610584678128362
75 0.02350977435708046 0.125 0.0006092698313295841
76 0.023519862443208694 0.125 0.0006097928853705525
77 0.022609638050198555 0.125 0.0005635078996419907
78 0.02259650267660618 0.125 0.0005628532962873578
79 0.021804844960570335 0.125 0.0005241056205704808
80 0.02179909311234951 0.125 0.0005238291341811419
81 0.0210731141269207 0.125 0.0004895197344012558
82 0.021076727658510208 0.125 0.0004896876635029912
83 0.020437855273485184 0.125 0.0004604510613717139
84 0.020398283377289772 0.125 0.0004586696741171181
85 0.01974639669060707 0.125 0.00042982189916074276
86 0.019635796546936035 0.125 0.00042502046562731266
87 0.01901046745479107 0.125 0.00039838074008002877
88 0.018941635265946388 0.125 0.00039550120709463954
89 0.01841864548623562 0.125 0.0003739625681191683
90 0.018254127353429794 0.125 0.0003673118771985173
91 0.017744924873113632 0.125 0.00034710520412772894
92 0.017657792195677757 0.125 0.00034370479988865554

 20%|███████████████████████████████████████████████████████████                                                                                                                                                                                                                                            | 2/10 [01:22<05:27, 41.00s/it]
94 0.01703747548162937 0.125 0.0003199803177267313
95 0.01658872701227665 0.125 0.00030334643088281155
96 0.0164440106600523 0.125 0.00029807683313265443
97 0.01608697883784771 0.125 0.0002852737088687718
98 0.016026504337787628 0.125 0.0002831329475156963
99 0.015641868114471436 0.125 0.0002697056042961776
inversion time : 39.848315477371216
0, 0.09775816649198532
1, 0.09775816649198532
2, 0.09261518716812134
3, 0.08272577077150345
4, 0.0690140649676323
5, 0.0531066358089447
6, 0.03751777857542038
7, 0.026797741651535034
8, 0.020150018855929375
9, 0.01625087484717369
10, 0.013919323682785034
11, 0.012371301651000977
12, 0.011173499748110771
13, 0.010127102956175804
14, 0.009165508672595024
15, 0.008280562236905098
16, 0.007480079308152199
17, 0.006769552826881409
18, 0.006148890592157841
19, 0.005614285822957754
20, 0.005163124762475491
21, 0.004792683757841587
22, 0.004497620277106762
23, 0.004268561489880085
24, 0.004090827889740467
25, 0.003947270102798939
26, 0.0038195583038032055
27, 0.003692262340337038
28, 0.0035553916823118925
29, 0.0034046131186187267
30, 0.0032402470242232084
31, 0.0030663684010505676
32, 0.002889026887714863
33, 0.0027153012342751026
34, 0.002550069009885192
35, 0.002397035015746951
36, 0.002258249092847109
37, 0.00213423790410161
38, 0.0020243264734745026
39, 0.001927028177306056
40, 0.0018405335722491145
41, 0.001763346022926271
42, 0.001693541998974979
43, 0.001629725331440568
44, 0.0015705701662227511
45, 0.0015151002444326878
46, 0.0014625906478613615
47, 0.0014126184396445751
48, 0.0013650653418153524
49, 0.0013198809465393424
50, 0.001277085393667221
51, 0.0012366627342998981
52, 0.0011987490579485893
53, 0.0011634122347459197
54, 0.001130593242123723
55, 0.0011001585517078638
56, 0.0010719017591327429
57, 0.0010456203017383814
58, 0.0010211030021309853
59, 0.0009981741895899177
60, 0.0009767301380634308
61, 0.0009566731750965118
62, 0.000937794684432447
63, 0.0009202170185744762
64, 0.0009037026902660728
65, 0.0008883423870429397
66, 0.0008739830809645355
67, 0.0008606470073573291
68, 0.0008482031407766044
69, 0.0008366613183170557
70, 0.0008259600726887584
71, 0.0008160853176377714
72, 0.0008069087634794414
73, 0.0007984775002114475
74, 0.0007907127728685737
75, 0.0007835885044187307
76, 0.0007770615629851818
77, 0.0007711000507697463
78, 0.0007656367379240692
79, 0.0007606744766235352
80, 0.0007562068058177829
81, 0.0007521576480939984
82, 0.0007485145470127463
83, 0.0007452478166669607
84, 0.0007423566421493888
85, 0.0007398175075650215
86, 0.0007375474087893963
87, 0.0007356115966103971
88, 0.0007339291623793542
89, 0.0007325108163058758
90, 0.0007312847301363945
91, 0.0007302925805561244
92, 0.0007295007817447186
93, 0.000728853396140039
94, 0.0007283603772521019
95, 0.0007279915735125542
96, 0.0007277396507561207
97, 0.0007275877869687974
98, 0.0007274994859471917
99, 0.0007274590316228569
0 2.5382730960845947 0.5 8.790193557739258
1 1.3114522695541382 0.5 2.3465332984924316
2 1.0479977130889893 0.5 1.498450517654419
3 1.2137014865875244 0.5 2.009766101837158
4 1.439387321472168 0.5 2.8266825675964355
5 1.3831708431243896 0.5 2.6101975440979004
6 1.333390712738037 0.5 2.4256973266601562
7 1.3742414712905884 0.5 2.5766048431396484
8 1.3976936340332031 0.5 2.665297746658325
9 1.3627123832702637 0.5 2.5335540771484375
10 1.3674012422561646 0.5 2.5510194301605225
11 1.3592987060546875 0.5 2.52087664604187
12 1.3971964120864868 0.5 2.6634016036987305
13 1.4075881242752075 0.5 2.70316743850708
14 1.3816434144973755 0.5 2.604435920715332
15 1.3614866733551025 0.5 2.5289981365203857
16 1.3903875350952148 0.5 2.6375060081481934
17 1.4095959663391113 0.5 2.7108848094940186
18 1.3790168762207031 0.25 2.59454345703125
19 1.3732709884643555 0.25 2.5729668140411377
20 0.7036653757095337 0.25 0.6755447387695312
21 0.4886094629764557 0.25 0.32572078704833984
22 0.46909797191619873 0.25 0.3002263903617859
23 0.622102677822113 0.25 0.5280144810676575
24 0.6579789519309998 0.25 0.590671181678772
25 0.6711039543151855 0.25 0.614470899105072
26 0.6717599630355835 0.25 0.6156728267669678
27 0.7105051875114441 0.25 0.6887415051460266
28 0.6839706301689148 0.25 0.6382585763931274
29 0.6558030247688293 0.25 0.5867708921432495
30 0.6366976499557495 0.25 0.5530803799629211
31 0.6959500312805176 0.25 0.6608119010925293
32 0.674457311630249 0.25 0.6206269264221191
33 0.6509358286857605 0.25 0.5780935287475586
34 0.6435117125511169 0.25 0.5649821162223816
35 0.6864532828330994 0.25 0.6429004073143005
36 0.6740699410438538 0.25 0.6199142932891846
