
  0%|                                                                                                                                                                                                                                                                                            | 0/10 [00:00<?, ?it/s]
0, 0.1364392638206482
1, 0.1364392638206482
2, 0.12979230284690857
3, 0.11694814264774323
4, 0.09893622249364853
5, 0.07756023108959198
6, 0.055496178567409515
7, 0.03876931965351105
8, 0.027032416313886642
9, 0.019467566162347794
10, 0.015012701973319054
11, 0.012620588764548302
12, 0.011441538110375404
13, 0.010877378284931183
14, 0.010554470121860504
15, 0.010262858122587204
16, 0.00989861972630024
17, 0.00942970346659422
18, 0.008866557851433754
19, 0.00823665689677
20, 0.007576101925224066
21, 0.006916569080203772
22, 0.006290744058787823
23, 0.005725613795220852
24, 0.005235395394265652
25, 0.00482515711337328
26, 0.004491541534662247
27, 0.004227009601891041
28, 0.004018266685307026
29, 0.0038498768117278814
30, 0.003707006573677063
31, 0.0035758453886955976
32, 0.0034463824704289436
33, 0.0033110487274825573
34, 0.003166508860886097
35, 0.003012369852513075
36, 0.002850056393072009
37, 0.0026831140276044607
38, 0.002515590749680996
39, 0.002351934788748622
40, 0.002196111250668764
41, 0.002051355317234993
42, 0.0019196964567527175
43, 0.0018021417781710625
44, 0.001698576263152063
45, 0.0016079742927104235
46, 0.0015286298003047705
47, 0.0014584673335775733
48, 0.0013954172609373927
49, 0.0013374818954616785
50, 0.00128304329700768
51, 0.001231263973750174
52, 0.0011815427569672465
53, 0.0011338898912072182
54, 0.0010882376227527857
55, 0.0010450197150930762
56, 0.0010044139344245195
57, 0.0009665986290201545
58, 0.0009316214127466083
59, 0.0008992257062345743
60, 0.0008690729737281799
61, 0.0008408743888139725
62, 0.0008142662700265646
63, 0.0007889578118920326
64, 0.0007647293386980891
65, 0.0007413289276883006
66, 0.0007188398158177733
67, 0.0006972404080443084
68, 0.0006767005543224514
69, 0.000657294993288815
70, 0.000639088568277657
71, 0.0006221386138349771
72, 0.0006064031040295959
73, 0.0005918311653658748
74, 0.0005782758235000074
75, 0.0005656133871525526
76, 0.0005537421675398946
77, 0.0005425020353868604
78, 0.0005318226758390665
79, 0.0005216218414716423
80, 0.0005118329427205026
81, 0.0005024455022066832
82, 0.0004934691241942346
83, 0.00048487060121260583
84, 0.00047670205822214484
85, 0.0004688723129220307
86, 0.0004614157078322023
87, 0.00045427921577356756
88, 0.000447439553681761
89, 0.000440883421106264
90, 0.0004346017667558044
91, 0.00042854761704802513
92, 0.0004227271710988134
93, 0.00041709942161105573
94, 0.00041167050949297845
95, 0.00040638603968545794
96, 0.000401277095079422
97, 0.00039629050297662616
98, 0.000391458161175251
99, 0.00038676284020766616
100, 0.0003822121652774513
101, 0.00037778992555104196
102, 0.0003735196660272777
103, 0.00036937196273356676
104, 0.00036536058178171515
105, 0.00036145513877272606
106, 0.00035765906795859337
107, 0.0003539582248777151
108, 0.0003503291809465736
109, 0.00034677243093028665
110, 0.0003433024394325912
111, 0.000339893827913329
112, 0.0003365850425325334
113, 0.00033333798637613654
114, 0.000330171751556918
115, 0.00032707719947211444
116, 0.0003240396035835147
117, 0.00032108102459460497
118, 0.0003181619103997946
119, 0.00031532481079921126
120, 0.00031252155895344913
121, 0.0003097750886809081
122, 0.0003070773964282125
123, 0.000304425077047199
124, 0.00030183664057403803
125, 0.0002992920344695449
126, 0.0002967937325593084
127, 0.00029435037868097425
128, 0.0002919450344052166
129, 0.0002895930374506861
130, 0.0002872710465453565
131, 0.00028499081963673234
132, 0.0002827496500685811
133, 0.0002805379335768521
134, 0.00027837243396788836
135, 0.00027624276117421687
136, 0.00027415226213634014
137, 0.00027209336985833943
138, 0.00027006829623132944
139, 0.00026807835092768073
140, 0.00026612935471348464
141, 0.00026421569054946303
142, 0.00026232143864035606
143, 0.0002604627516120672
144, 0.00025863092741928995
145, 0.0002568285563029349
146, 0.00025505939265713096
147, 0.0002533152583055198
148, 0.00025159824872389436
149, 0.00024990105885080993
150, 0.0002482352720107883
151, 0.00024658197071403265
152, 0.0002449532912578434
153, 0.0002433575427858159
154, 0.0002417701034573838
155, 0.00024020869750529528
156, 0.00023865417460910976
157, 0.00023712601978331804
158, 0.0002355993929086253
159, 0.0002340935607207939
160, 0.00023259990848600864
161, 0.00023112117196433246
162, 0.00022964822710491717
163, 0.00022818869911134243
164, 0.00022673809144180268
165, 0.00022529272246174514
166, 0.00022384885232895613
167, 0.00022242302657105029
168, 0.0002210192324128002
169, 0.0002196185232605785
170, 0.00021824715076945722
171, 0.00021688528067898005
172, 0.00021554285194724798
173, 0.00021421797282528132
174, 0.00021289933647494763
175, 0.0002115990500897169
176, 0.00021030378411523998
177, 0.00020903241238556802
178, 0.00020777565077878535
179, 0.00020653799583669752
180, 0.00020531540212687105
181, 0.00020411958394106477
182, 0.00020293067791499197
183, 0.00020176403631921858
184, 0.00020060378301423043
185, 0.00019946286920458078
186, 0.00019833474652841687
187, 0.0001972193131223321
188, 0.00019612314645200968
189, 0.00019503214571159333
190, 0.00019396489369682968
191, 0.0001928971614688635
192, 0.00019186192366760224
193, 0.0001908261183416471
194, 0.00018980618915520608
195, 0.0001887924736365676
196, 0.00018779747188091278
197, 0.0001868128019850701
198, 0.00018584265490062535
199, 0.0001848962128860876
200, 0.00018394633661955595
201, 0.0001830127730499953
202, 0.00018208861001767218
203, 0.00018118403386324644
204, 0.00018029590137302876
205, 0.0001794083946151659
206, 0.00017852852761279792
207, 0.00017766845121514052
208, 0.000176817033207044
209, 0.00017596976249478757
210, 0.00017513577768113464
211, 0.00017430940351914614
212, 0.00017348918481729925
213, 0.00017267974908463657
214, 0.0001718796993372962
215, 0.00017108756583184004
216, 0.00017030371236614883
217, 0.00016953427984844893
218, 0.00016875930305104703
219, 0.000168000056874007
220, 0.00016723969019949436
221, 0.00016648659948259592
222, 0.00016575182962697
223, 0.00016501193749718368
224, 0.0001642913994146511
225, 0.00016355676052626222
226, 0.00016284470621030778
227, 0.00016213409253396094
228, 0.00016142490494530648
229, 0.0001607301674084738
230, 0.0001600349205546081
231, 0.00015933993563521653
232, 0.00015865710156504065
233, 0.00015797006199136376
234, 0.0001572964247316122
235, 0.00015662152145523578
236, 0.00015594688011333346
237, 0.00015527974755968899
238, 0.00015460960275959224
239, 0.00015394415822811425
240, 0.00015328743029385805
241, 0.00015262429951690137
242, 0.00015196471940726042
243, 0.00015130583778955042
244, 0.00015063470345921814
245, 0.00014997075777500868
246, 0.00014929378812666982
247, 0.00014861085219308734
248, 0.0001479344500694424
249, 0.00014723898493684828
250, 0.0001465330133214593
251, 0.00014582526637241244
252, 0.0001451232237741351
253, 0.000144424062455073
254, 0.0001437185419490561
255, 0.0001430327829439193
256, 0.00014234495756682009
257, 0.0001416743907611817
258, 0.00014099720283411443
259, 0.00014032702893018723
260, 0.0001396706502418965
261, 0.00013900850899517536
262, 0.00013836316065862775
263, 0.00013773603131994605
264, 0.00013710997882299125
265, 0.0001364964118693024
266, 0.0001358856970909983
267, 0.00013528348063118756
268, 0.00013468789984472096
269, 0.0001341000897809863
270, 0.00013351719826459885
271, 0.00013293870142661035
272, 0.0001323738251812756
273, 0.00013180935638956726
274, 0.00013125190162099898
275, 0.00013070156273897737
276, 0.00013016076991334558
277, 0.0001296150148846209
278, 0.00012908461212646216
279, 0.00012855359818786383
280, 0.00012802972923964262
281, 0.00012751614849548787
282, 0.00012699171202257276
283, 0.0001264887541765347
284, 0.0001259777636732906
285, 0.00012547716323751956
286, 0.00012497641728259623
287, 0.00012448072084225714
288, 0.00012398636317811906
289, 0.00012350505858194083
290, 0.00012302040704526007
291, 0.00012253571185283363
292, 0.00012205886741867289
293, 0.00012159741891082376
294, 0.00012112529657315463
295, 0.00012065899500157684
296, 0.00012019450514344499
297, 0.00011974103836109862
298, 0.00011927570449188352
299, 0.00011882938997587189
300, 0.00011837530473712832
301, 0.00011792821896960959
302, 0.00011748060933314264
303, 0.00011703505151672289
304, 0.00011659718438750133
305, 0.00011616734263952821
306, 0.00011572622315725312
307, 0.00011530084884725511
308, 0.00011486568109830841
309, 0.00011444207484601066
310, 0.00011401480151107535
311, 0.00011359475320205092
312, 0.00011318095494061708
313, 0.00011276763689238578
314, 0.00011235207784920931
315, 0.00011194330727448687
316, 0.00011152766819577664
317, 0.00011112097854493186
318, 0.00011072434426750988
319, 0.00011032173642888665
320, 0.00010992276656907052
321, 0.00010952701268251985
322, 0.00010913443111348897
323, 0.00010873953578993678
324, 0.00010834857675945386
325, 0.00010795968410093337
326, 0.00010757317068055272
327, 0.00010718595876824111
328, 0.00010679917613742873
329, 0.00010641969129210338
330, 0.00010604053386487067
331, 0.00010565399134065956
332, 0.00010527721315156668
333, 0.00010490260319784284
334, 0.00010453364666318521
335, 0.00010415269935037941
336, 0.00010378579463576898
337, 0.00010341439337935299
338, 0.00010303669841960073
339, 0.00010266966273775324
340, 0.00010229542385786772
341, 0.00010192338231718168
342, 0.00010156077041756362
343, 0.0001011925851344131
344, 0.00010081871005240828
345, 0.00010044872760772705
346, 0.0001000770935206674
347, 9.970867540687323e-05
348, 9.933285036822781e-05
349, 9.896158007904887e-05
350, 9.859296551439911e-05
351, 9.821505227591842e-05
352, 9.784589929040521e-05
353, 9.747785225044936e-05
354, 9.711795428302139e-05
355, 9.674613829702139e-05
356, 9.638640040066093e-05
357, 9.602013597032055e-05
358, 9.567156666889787e-05
359, 9.531002433504909e-05
360, 9.495111589785665e-05
361, 9.459843568038195e-05
362, 9.42493206821382e-05
363, 9.389756451128051e-05
364, 9.355336078442633e-05
365, 9.320050594396889e-05
366, 9.285262785851955e-05
367, 9.250149014405906e-05
368, 9.21602695598267e-05
369, 9.181734640151262e-05
370, 9.146163210971281e-05
371, 9.112677071243525e-05
372, 9.077772119781002e-05
373, 9.043536556418985e-05
374, 9.009351197164506e-05
375, 8.97461868589744e-05
376, 8.940279803937301e-05
377, 8.90629889909178e-05
378, 8.872468606568873e-05
379, 8.838213398121297e-05
380, 8.80415755091235e-05
381, 8.76994599821046e-05
382, 8.736178278923035e-05
383, 8.702538616489619e-05
384, 8.668528607813641e-05
385, 8.634741243440658e-05
386, 8.601494482718408e-05
387, 8.567770419176668e-05
388, 8.533856453141198e-05
389, 8.499599061906338e-05
390, 8.466221333947033e-05
391, 8.43258312670514e-05
392, 8.39911081129685e-05
393, 8.365380199393257e-05
394, 8.331840945174918e-05
395, 8.298373722936958e-05
396, 8.264660573331639e-05
397, 8.231269748648629e-05
398, 8.19818233139813e-05
399, 8.165290637407452e-05
400, 8.13286897027865e-05
401, 8.100125705823302e-05
402, 8.067373710218817e-05
403, 8.034510392462835e-05
404, 8.002170943655074e-05
405, 7.969874422997236e-05
406, 7.937478949315846e-05
407, 7.905883830972016e-05
408, 7.873799040680751e-05
409, 7.841874321456999e-05
410, 7.810718670953065e-05
411, 7.77877212385647e-05
412, 7.74771542637609e-05
413, 7.716256368439645e-05
414, 7.685106538701802e-05
415, 7.654629007447511e-05
416, 7.623506826348603e-05
417, 7.593091868329793e-05
418, 7.56169538362883e-05
419, 7.531909795943648e-05
420, 7.501523214159533e-05
421, 7.471435674233362e-05
422, 7.441197521984577e-05
423, 7.411211845465004e-05
424, 7.381447358056903e-05
425, 7.351647946052253e-05
426, 7.322286546695977e-05
427, 7.292373629752547e-05
428, 7.26232974557206e-05
429, 7.233182259369642e-05
430, 7.203472341643646e-05
431, 7.174318307079375e-05
432, 7.145434938138351e-05
433, 7.115679909475148e-05
434, 7.086824916768819e-05
435, 7.057205948513001e-05
436, 7.028492109384388e-05
437, 6.999413017183542e-05
438, 6.970063259359449e-05
439, 6.941297760931775e-05
440, 6.912741082487628e-05
441, 6.883459718665108e-05
442, 6.854996172478423e-05
443, 6.826002208981663e-05
444, 6.797972309868783e-05
445, 6.769360334146768e-05
446, 6.740313983755186e-05
447, 6.712081813020632e-05
448, 6.68409193167463e-05
449, 6.655615288764238e-05
450, 6.628636037930846e-05
451, 6.600133929168805e-05
452, 6.572671554749832e-05
453, 6.544878851855174e-05
454, 6.517277506645769e-05
455, 6.489666702691466e-05
456, 6.462665623985231e-05
457, 6.435557588702068e-05
458, 6.408279296010733e-05
459, 6.381672574207187e-05
460, 6.354360812110826e-05
461, 6.327372102532536e-05
462, 6.300659879343584e-05
463, 6.273805047385395e-05
464, 6.24727108515799e-05
465, 6.220836075954139e-05
466, 6.194919114932418e-05
467, 6.168667459860444e-05
468, 6.142226629890501e-05
469, 6.116490112617612e-05
470, 6.089914677431807e-05
471, 6.064331319066696e-05
472, 6.0385318647604436e-05
473, 6.01257779635489e-05
474, 5.986228279653005e-05
475, 5.960746784694493e-05
476, 5.9354752011131495e-05
477, 5.909218089072965e-05
478, 5.88413022342138e-05
479, 5.858801887370646e-05
480, 5.8337420341558754e-05
481, 5.807558409287594e-05
482, 5.7832017773762345e-05
483, 5.757419785368256e-05
484, 5.732165300287306e-05
485, 5.706941010430455e-05
486, 5.68222239962779e-05
487, 5.6567369028925896e-05
488, 5.6316741392947733e-05
489, 5.606673221336678e-05
490, 5.581663572229445e-05
491, 5.556466567213647e-05
492, 5.5311676987912506e-05
493, 5.506710658664815e-05
494, 5.481103289639577e-05
495, 5.4564290621783584e-05
496, 5.431964382296428e-05
497, 5.406956188380718e-05
498, 5.382331437431276e-05
499, 5.3573727200273424e-05
500, 5.332643195288256e-05
501, 5.3086223488207906e-05
502, 5.283287464408204e-05
503, 5.259324098005891e-05
504, 5.234527634456754e-05
505, 5.2102892368566245e-05
506, 5.186138878343627e-05
507, 5.161528679309413e-05
508, 5.137351035955362e-05
509, 5.113688166602515e-05
510, 5.089075057185255e-05
511, 5.065355071565136e-05
512, 5.040924224886112e-05
513, 5.016597788198851e-05
514, 4.99271773151122e-05
515, 4.968515349901281e-05
516, 4.945536784362048e-05
517, 4.9213122110813856e-05
518, 4.897358303423971e-05
519, 4.8743197112344205e-05
520, 4.850687037105672e-05
521, 4.827582597499713e-05
522, 4.8041016270872205e-05
523, 4.7809386160224676e-05
524, 4.757908027386293e-05
525, 4.734524918603711e-05
526, 4.711415385827422e-05
527, 4.688162152888253e-05
528, 4.663811341742985e-05
529, 4.639774851966649e-05
530, 4.615957732312381e-05
531, 4.5928922190796584e-05
532, 4.5692162530031055e-05
533, 4.54496439488139e-05
534, 4.5216533180791885e-05
535, 4.4992710172664374e-05
536, 4.4756288843927905e-05
537, 4.451858694665134e-05
538, 4.429799082572572e-05
539, 4.406577136251144e-05
540, 4.383471605251543e-05
541, 4.360230377642438e-05
542, 4.337461359682493e-05
543, 4.3147731048520654e-05
544, 4.291017467039637e-05
545, 4.267832264304161e-05
546, 4.245267336955294e-05
547, 4.221717972541228e-05
548, 4.198112219455652e-05
549, 4.175131834927015e-05
550, 4.1522635001456365e-05
551, 4.128588625462726e-05
552, 4.1060491639655083e-05
553, 4.082946907146834e-05
554, 4.0604521927889436e-05
555, 4.037962935399264e-05
556, 4.0161990909837186e-05
557, 3.995030056103133e-05
558, 3.9733695302857086e-05
559, 3.951954568037763e-05
560, 3.931270111934282e-05
561, 3.910297527909279e-05
562, 3.88998887501657e-05
563, 3.869440843118355e-05
564, 3.8488473364850506e-05
565, 3.82950202038046e-05
566, 3.8093614421086386e-05
567, 3.789902984863147e-05
568, 3.770003968384117e-05
569, 3.750864925677888e-05
570, 3.731482502189465e-05
571, 3.71227361029014e-05
572, 3.693050894071348e-05
573, 3.673825631267391e-05
574, 3.6551879020407796e-05
575, 3.63576109521091e-05
576, 3.6170582461636513e-05
577, 3.598223702283576e-05
578, 3.579731856007129e-05
579, 3.560689583537169e-05
580, 3.5417164326645434e-05
581, 3.5233566450187936e-05
582, 3.503798507153988e-05
583, 3.485563138383441e-05
584, 3.466748967184685e-05
585, 3.448064308031462e-05
586, 3.4292352211195976e-05
587, 3.410446515772492e-05
588, 3.3920470741577446e-05
589, 3.373128856765106e-05
590, 3.3545100450282916e-05
591, 3.336110967211425e-05
592, 3.3174885174958035e-05
593, 3.2992618798743933e-05
594, 3.2815427402965724e-05
595, 3.2634870876790956e-05
596, 3.2458505302201957e-05
597, 3.227864362997934e-05
598, 3.210664362995885e-05
599, 3.1932304409565404e-05
600, 3.1757590477354825e-05
601, 3.158756226184778e-05
602, 3.141928027616814e-05
603, 3.124889190075919e-05
604, 3.107973316218704e-05
605, 3.0915856768842787e-05
606, 3.075296262977645e-05
607, 3.058815491385758e-05
608, 3.0425884688156657e-05
609, 3.0259936465881765e-05
610, 3.010171712958254e-05
611, 2.994153692270629e-05
612, 2.977970871143043e-05
613, 2.9623217415064573e-05
614, 2.9466644264175557e-05
615, 2.9308908779057674e-05
616, 2.915259938163217e-05
617, 2.8998596462770365e-05
618, 2.8843400286859833e-05
619, 2.8690945327980444e-05
620, 2.853636397048831e-05
621, 2.8389373255777173e-05
622, 2.823638715199195e-05
623, 2.808966746670194e-05
624, 2.793803287204355e-05
625, 2.778962516458705e-05
626, 2.76432947430294e-05
627, 2.7497582777868956e-05
628, 2.735466114245355e-05
629, 2.7205576770938933e-05
630, 2.706276427488774e-05
631, 2.691906047402881e-05
632, 2.677765951375477e-05
633, 2.6634912501322106e-05
634, 2.649108319019433e-05
635, 2.6355584850534797e-05
636, 2.6210604119114578e-05
637, 2.607192800496705e-05
638, 2.593238968984224e-05
639, 2.5794382963795215e-05
640, 2.5657469450379722e-05
641, 2.552385558374226e-05
642, 2.5386549168615602e-05
643, 2.5247351004509255e-05
644, 2.5120220016106032e-05
645, 2.4982331524370238e-05
646, 2.4847866370691918e-05
647, 2.470900653861463e-05
648, 2.4579841920058243e-05
649, 2.445089558023028e-05
650, 2.431565008009784e-05
651, 2.4190549083868973e-05
652, 2.405907252978068e-05
653, 2.392891292402055e-05
654, 2.3800812414265238e-05
655, 2.367118577240035e-05
656, 2.3542335839010775e-05
657, 2.341621984669473e-05
658, 2.3290394892683253e-05
659, 2.3163547666626982e-05
660, 2.3039036022964865e-05
661, 2.2912367057870142e-05
662, 2.2793303287471645e-05
663, 2.2664462449029088e-05
664, 2.2543410523212515e-05
665, 2.2420412278734148e-05
666, 2.229902020189911e-05
667, 2.2178053768584505e-05
668, 2.205912460340187e-05
669, 2.1935962649877183e-05
670, 2.181641866627615e-05
671, 2.1697160264011472e-05
672, 2.1579993699560873e-05
673, 2.1460185962496325e-05
674, 2.1341187675716355e-05
675, 2.1224870579317212e-05
676, 2.1107633074279875e-05
677, 2.0992183635826223e-05
678, 2.0875013433396816e-05
679, 2.0762881831615232e-05
680, 2.0648767531383783e-05
681, 2.0535706426016986e-05
682, 2.0421008230187e-05
683, 2.0310160834924318e-05
684, 2.0195027900626883e-05
685, 2.0083582057850435e-05
686, 1.9976705516455695e-05
687, 1.986597999348305e-05
688, 1.9754454115172848e-05
689, 1.964303373824805e-05
690, 1.953535684151575e-05
691, 1.9423554476816207e-05
692, 1.9318107661092654e-05
693, 1.920995782711543e-05
694, 1.9101657017017715e-05
695, 1.8990216631209478e-05
696, 1.8888582417275757e-05
697, 1.877883551060222e-05
698, 1.8674130842555314e-05
699, 1.8568378436611965e-05
700, 1.845978113124147e-05
701, 1.8352464394411072e-05
702, 1.824921855586581e-05
703, 1.814601091609802e-05
704, 1.803911800379865e-05
705, 1.7936921722139232e-05
706, 1.7829894204623997e-05
707, 1.7727175873005763e-05
708, 1.7624264728510752e-05
709, 1.7520564142614603e-05
710, 1.7418622519471683e-05
711, 1.7319489415967837e-05
712, 1.7216238120454364e-05
713, 1.7115304217441007e-05
714, 1.7013622709782794e-05
715, 1.6915684682317078e-05
716, 1.6815007256809622e-05
717, 1.671735299169086e-05
718, 1.6617455912637524e-05
719, 1.6523796148248948e-05
720, 1.6425034118583426e-05
721, 1.6330108337569982e-05
722, 1.6235513612627983e-05
723, 1.6143330867635086e-05
724, 1.6047053577494808e-05
