
  0%|                                                                                                                                                                                                                                                                                                                                                                              | 0/10 [00:00<?, ?it/s]
0, 0.1364392638206482
1, 0.1364392638206482
2, 0.1297922432422638
3, 0.11694803088903427
4, 0.09893611073493958
5, 0.07756027579307556
6, 0.05549611896276474
7, 0.03877308592200279
8, 0.027045559138059616
9, 0.019489742815494537
10, 0.015038165263831615
11, 0.012640565633773804
12, 0.011447648517787457
13, 0.010865256190299988
14, 0.01052361261099577
15, 0.010215474292635918
16, 0.009841366671025753
17, 0.009367173537611961
18, 0.008805116638541222
19, 0.008181019686162472
20, 0.007529729977250099
21, 0.006880265660583973
22, 0.006261869799345732
23, 0.005697020795196295
24, 0.005201016552746296
25, 0.004778012167662382
26, 0.004425426945090294
27, 0.004136818461120129
28, 0.0039021417032927275
29, 0.003708950011059642
30, 0.0035452451556921005
31, 0.003400722285732627
32, 0.0032658888958394527
33, 0.0031345123425126076
34, 0.0030030603520572186
35, 0.0028688632883131504
36, 0.0027321409434080124
37, 0.00259347609244287
38, 0.002454803790897131
39, 0.002318119164556265
40, 0.0021859235130250454
41, 0.002059863181784749
42, 0.0019417023286223412
43, 0.0018322912510484457
44, 0.0017320936312898993
45, 0.0016413511475548148
46, 0.0015595242148265243
47, 0.001486056949943304
48, 0.0014202669262886047
49, 0.0013612372567877173
50, 0.0013079291675239801
51, 0.0012596686137840152
52, 0.0012156276497989893
53, 0.0011752386344596744
54, 0.0011379385832697153
55, 0.0011034004855901003
56, 0.0010713075753301382
57, 0.0010414361022412777
58, 0.0010135830380022526
59, 0.0009876920375972986
60, 0.000963596801739186
61, 0.0009412862127646804
62, 0.0009204970556311309
63, 0.0009013395756483078
64, 0.0008836036431603134
65, 0.0008672699332237244
66, 0.0008522332645952702
67, 0.0008383364183828235
68, 0.000825602444820106
69, 0.0008138668490573764
70, 0.0008031325414776802
71, 0.0007932381704449654
72, 0.0007841624319553375
73, 0.0007758534047752619
74, 0.0007682458381168544
75, 0.0007613073103129864
76, 0.0007549218717031181
77, 0.0007491245632991195
78, 0.0007438458269461989
79, 0.0007390761747956276
80, 0.0007347384234890342
81, 0.0007308239582926035
82, 0.0007273586234077811
83, 0.0007242380524985492
84, 0.0007214503129944205
85, 0.0007189459865912795
86, 0.0007168435258790851
87, 0.0007149698212742805
88, 0.0007133252802304924
89, 0.0007120021618902683
90, 0.0007108398713171482
91, 0.0007098786300048232
92, 0.0007091227453202009
93, 0.0007084878161549568
94, 0.0007080149371176958
95, 0.0007076727924868464
96, 0.0007074295426718891
97, 0.0007072788430377841
98, 0.0007071855943650007
99, 0.000707145081833005
0 2.4191067218780518 0.05 7.640528678894043
1 2.2590529918670654 0.05 6.6629438400268555
2 2.0915753841400146 0.05 5.711634635925293
3 1.8938122987747192 0.05 4.682600975036621
4 1.614111304283142 0.05 3.4015767574310303
5 1.2362468242645264 0.05 1.9953713417053223
6 0.8045721054077148 0.05 0.8451684713363647
7 0.574920117855072 0.05 0.4315471649169922
8 0.47208306193351746 0.05 0.2909713387489319
9 0.3923065960407257 0.05 0.2009391486644745
10 0.33782732486724854 0.05 0.1490056812763214
11 0.29666826128959656 0.05 0.11490939557552338
12 0.2651820182800293 0.05 0.09181243181228638
13 0.24006937444210052 0.05 0.07524658739566803
14 0.2195618450641632 0.05 0.06294004619121552
15 0.2026486098766327 0.05 0.05361676216125488
16 0.1885145753622055 0.05 0.04639841616153717
17 0.17652419209480286 0.05 0.04068382829427719
18 0.16618002951145172 0.05 0.03605545312166214
19 0.1571255773305893 0.05 0.032233476638793945
20 0.14906230568885803 0.05 0.02901007980108261
21 0.14184080064296722 0.05 0.026267312467098236
22 0.13528181612491608 0.05 0.023894183337688446
23 0.12931159138679504 0.05 0.021831732243299484
24 0.12385114282369614 0.05 0.020026884973049164
25 0.11883773654699326 0.05 0.018438352271914482
26 0.1142113134264946 0.05 0.017030663788318634
27 0.10993652790784836 0.05 0.01577964797616005
28 0.10597749799489975 0.05 0.01466360129415989
29 0.1022854596376419 0.05 0.013659699819982052
30 0.09884811192750931 0.05 0.012757046148180962
31 0.09561556577682495 0.05 0.01193632185459137
32 0.09258944541215897 0.05 0.01119273528456688
33 0.08973991125822067 0.05 0.010514403693377972
34 0.08704535663127899 0.05 0.00989246554672718
35 0.08450136333703995 0.05 0.009322679601609707
36 0.08207938075065613 0.05 0.008795924484729767
37 0.0797729641199112 0.05 0.008308541029691696
38 0.0775802806019783 0.05 0.007858071476221085
39 0.07548841089010239 0.05 0.0074400161392986774
40 0.07348603010177612 0.05 0.007050548680126667
41 0.07156917452812195 0.05 0.006687524262815714
42 0.06972704827785492 0.05 0.006347692105919123
43 0.06796334683895111 0.05 0.006030632182955742
44 0.06625845283269882 0.05 0.005731863435357809
45 0.06463244557380676 0.05 0.005453991238027811
46 0.06305697560310364 0.05 0.00519134197384119
47 0.061539459973573685 0.05 0.004944480489939451
48 0.060070380568504333 0.05 0.0047112274914979935
49 0.058663662523031235 0.05 0.0044931573793292046
50 0.0572928823530674 0.05 0.0042856293730437756
51 0.05597292631864548 0.05 0.00409043300896883
52 0.05469620227813721 0.05 0.0039059589616954327
53 0.053456563502550125 0.05 0.0037309154868125916
54 0.05226210877299309 0.05 0.0035660481080412865
55 0.05110064893960953 0.05 0.003409307450056076
56 0.04997630789875984 0.05 0.003260931232944131
57 0.04888586699962616 0.05 0.0031201825477182865
58 0.04783005267381668 0.05 0.0029868611600250006
59 0.04680241271853447 0.05 0.0028598932549357414
60 0.045810721814632416 0.05 0.002739981282502413
61 0.04484102129936218 0.05 0.0026252116076648235
62 0.04389934986829758 0.05 0.0025161090306937695
63 0.04299204424023628 0.05 0.0024131787940859795
64 0.04211041331291199 0.05 0.002315220423042774
65 0.041245508939027786 0.05 0.002221092814579606
66 0.0404064878821373 0.05 0.002131648361682892
67 0.0395977720618248 0.05 0.0020471743773669004
68 0.03879953920841217 0.05 0.0019654701463878155
69 0.03803122416138649 0.05 0.0018883997108787298
70 0.037287257611751556 0.05 0.0018152408301830292
71 0.03655685484409332 0.05 0.0017448212020099163
72 0.03584570065140724 0.05 0.0016775964759290218
73 0.03515857085585594 0.05 0.0016138966893777251
74 0.03448423743247986 0.05 0.0015525822527706623
75 0.033830877393484116 0.05 0.0014943070709705353
76 0.03319087252020836 0.05 0.0014383038505911827
77 0.032569095492362976 0.05 0.001384920091368258
78 0.03196993097662926 0.05 0.0013344328617677093
79 0.03137867525219917 0.05 0.0012855310924351215
80 0.030800605192780495 0.05 0.0012386019807308912
81 0.030242960900068283 0.05 0.001194158336147666
82 0.029694460332393646 0.05 0.0011512356577441096
83 0.02916284091770649 0.05 0.0011103835422545671
84 0.02864420786499977 0.05 0.0010712402872741222
85 0.02813044749200344 0.05 0.0010331575758755207
86 0.02763867750763893 0.05 0.000997350551187992
87 0.027156177908182144 0.05 0.0009628321859054267
88 0.026679648086428642 0.05 0.0009293376933783293
89 0.02622268907725811 0.05 0.0008977755205705762
90 0.025773081928491592 0.05 0.0008672534604556859
91 0.025334671139717102 0.05 0.0008379997452721
92 0.024905461817979813 0.05 0.0008098462130874395
93 0.0244889035820961 0.05 0.0007829824462532997
94 0.02407841756939888 0.05 0.0007569534936919808
95 0.02367696911096573 0.05 0.0007319231517612934
96 0.0232840646058321 0.05 0.000707833212800324
97 0.022902246564626694 0.05 0.000684809114318341
98 0.02253132127225399 0.05 0.0006628062692470849
99 0.0221620574593544 0.05 0.0006412590737454593

 10%|███████████████████████████████████▊                                                                                                                                                                                                                                                                                                                                  | 1/10 [00:41<06:09, 41.04s/it]
0, 0.1123598963022232
1, 0.1123598963022232
2, 0.10478782653808594
3, 0.09046933054924011
4, 0.0712452232837677
5, 0.05020028352737427
6, 0.03146949037909508
7, 0.02033029869198799
8, 0.014868564903736115
9, 0.01292741671204567
10, 0.012790225446224213
11, 0.013342487625777721
12, 0.013981826603412628
13, 0.01443932019174099
14, 0.014627481810748577
15, 0.014555959962308407
16, 0.014270107261836529
17, 0.01382785476744175
18, 0.013283882290124893
19, 0.012678507715463638
20, 0.0120416060090065
21, 0.011393610388040543
22, 0.010748948901891708
23, 0.0101159093901515
24, 0.009504253044724464
25, 0.008919439278542995
26, 0.008368550799787045
27, 0.007856784388422966
28, 0.007387986406683922
29, 0.006962870713323355
30, 0.0065817441791296005
31, 0.006242075469344854
32, 0.005939014256000519
33, 0.0056677088141441345
34, 0.005423198454082012
35, 0.005200313404202461
36, 0.0049948785454034805
37, 0.004803364630788565
38, 0.0046236286871135235
39, 0.004454389680176973
40, 0.004294851794838905
41, 0.004144236445426941
42, 0.0040022265166044235
43, 0.0038686804473400116
44, 0.003743540495634079
45, 0.003626925637945533
46, 0.003518827259540558
47, 0.0034187915734946728
48, 0.0033264546655118465
49, 0.0032414626330137253
50, 0.0031636084895581007
51, 0.0030921536963433027
52, 0.003026654478162527
53, 0.002966522006317973
54, 0.002911308314651251
55, 0.0028603686951100826
56, 0.00281327567063272
57, 0.002769612707197666
58, 0.002728991210460663
59, 0.0026912293396890163
60, 0.0026559741236269474
61, 0.0026231086812913418
62, 0.0025925165973603725
63, 0.0025639571249485016
64, 0.002537278924137354
65, 0.0025124074891209602
66, 0.002489248989149928
67, 0.002467615529894829
68, 0.002447466365993023
69, 0.0024286899715662003
70, 0.002411316381767392
71, 0.0023951977491378784
72, 0.0023802262730896473
73, 0.00236644153483212
74, 0.0023536626249551773
75, 0.002341912593692541
76, 0.0023310999386012554
77, 0.002321201376616955
78, 0.002312183380126953
79, 0.002303915796801448
80, 0.002296390710398555
81, 0.002289608120918274
82, 0.0022834953851997852
83, 0.002278020139783621
84, 0.0022731241770088673
85, 0.002268801676109433
86, 0.0022649657912552357
87, 0.002261646091938019
88, 0.0022587645798921585
89, 0.0022563261445611715
90, 0.002254264894872904
91, 0.0022525584790855646
92, 0.00225116522051394
93, 0.0022501028142869473
94, 0.0022492404095828533
95, 0.0022486168891191483
96, 0.0022481773048639297
97, 0.0022478920873254538
98, 0.002247738651931286
99, 0.002247657161206007
0 2.7173731327056885 0.05 8.139776229858398
1 2.5557968616485596 0.05 7.200563907623291
2 2.3845629692077637 0.05 6.268036365509033
3 2.1907217502593994 0.05 5.290398120880127
4 1.943752646446228 0.05 4.164816379547119
5 1.5791021585464478 0.05 2.748744249343872
6 1.1766047477722168 0.05 1.5260720252990723
7 0.8704758286476135 0.05 0.8352707624435425
8 0.7088029384613037 0.05 0.5538152456283569
9 0.5970327854156494 0.05 0.39292556047439575
10 0.5068724751472473 0.05 0.28321176767349243
11 0.434651255607605 0.05 0.20825517177581787
12 0.38181227445602417 0.05 0.16069915890693665
13 0.3411484360694885 0.05 0.12829230725765228
14 0.30844739079475403 0.05 0.10487598925828934
15 0.2815175950527191 0.05 0.08736248314380646
16 0.25896257162094116 0.05 0.07392440736293793
17 0.23979508876800537 0.05 0.06338616460561752
18 0.22330805659294128 0.05 0.054969608783721924
19 0.2089994251728058 0.05 0.04815085604786873
20 0.19649717211723328 0.05 0.042562440037727356
21 0.18550144135951996 0.05 0.03793223202228546
22 0.17579373717308044 0.05 0.034065961837768555
23 0.16714350879192352 0.05 0.030795898288488388
24 0.15939700603485107 0.05 0.028007492423057556
25 0.15240788459777832 0.05 0.02560523711144924
26 0.14605608582496643 0.05 0.02351544424891472
27 0.14023847877979279 0.05 0.021679451689124107
28 0.13489528000354767 0.05 0.02005891129374504
29 0.12995050847530365 0.05 0.01861528865993023
30 0.1253674179315567 0.05 0.017325397580862045
31 0.12108839303255081 0.05 0.01616288721561432
32 0.11708175390958786 0.05 0.015110969543457031
33 0.11332273483276367 0.05 0.014156239107251167
34 0.10978161543607712 0.05 0.013285352848470211
35 0.10644317418336868 0.05 0.012489627115428448
36 0.10328997671604156 0.05 0.011760621331632137
37 0.10030298680067062 0.05 0.01109025813639164
38 0.09747862815856934 0.05 0.010474484413862228
39 0.09478723257780075 0.05 0.00990406796336174
40 0.09223031252622604 0.05 0.009376942180097103
41 0.08980049192905426 0.05 0.008889377117156982
42 0.08748971670866013 0.05 0.008437774144113064
43 0.08527623862028122 0.05 0.008016226813197136
44 0.08317077904939651 0.05 0.0076252734288573265
45 0.08115086704492569 0.05 0.007259391248226166
46 0.07922009378671646 0.05 0.006918064318597317
47 0.07737474888563156 0.05 0.006599521264433861
48 0.07560241967439651 0.05 0.006300648674368858
49 0.07389934360980988 0.05 0.00601997971534729
50 0.07226819545030594 0.05 0.005757160484790802
51 0.07069887965917587 0.05 0.00550983939319849
52 0.06918337196111679 0.05 0.005276151932775974
53 0.06772913783788681 0.05 0.005056673660874367
54 0.06632547080516815 0.05 0.004849249497056007
55 0.06497824192047119 0.05 0.004654251039028168
56 0.0636688768863678 0.05 0.004468567203730345
57 0.06240357458591461 0.05 0.004292723257094622
58 0.061187662184238434 0.05 0.004127067513763905
59 0.06000610440969467 0.05 0.003969215787947178
60 0.05886301398277283 0.05 0.0038194330409169197
61 0.05776200816035271 0.05 0.0036778871435672045
62 0.05668416991829872 0.05 0.0035419093910604715
63 0.05564456433057785 0.05 0.003413181519135833
64 0.05463869124650955 0.05 0.003290897933766246
65 0.053659968078136444 0.05 0.003174056764692068
66 0.0527157336473465 0.05 0.0030633341521024704
67 0.051786575466394424 0.05 0.0029562984127551317
68 0.050892118364572525 0.05 0.002855057828128338
69 0.05002519488334656 0.05 0.0027586170472204685
70 0.049172304570674896 0.05 0.002665354637429118
71 0.048352569341659546 0.05 0.0025772289372980595
72 0.047550126910209656 0.05 0.002492397092282772
73 0.04676501080393791 0.05 0.002410770859569311
74 0.04600662365555763 0.05 0.0023332140408456326
75 0.04526938498020172 0.05 0.0022590355947613716
76 0.04454178363084793 0.05 0.0021870017517358065
77 0.043834444135427475 0.05 0.002118092030286789
78 0.04315390810370445 0.05 0.0020528354216367006
79 0.04247279092669487 0.05 0.001988545060157776
80 0.04182171821594238 0.05 0.0019280468113720417
81 0.04118024557828903 0.05 0.0018693547463044524
82 0.04055332764983177 0.05 0.0018128709634765983
83 0.03994371369481087 0.05 0.0017587768379598856
84 0.03935737535357475 0.05 0.001707521267235279
85 0.03876778855919838 0.05 0.0016567460261285305
86 0.03819527104496956 0.05 0.0016081740614026785
87 0.037639353424310684 0.05 0.001561701879836619
88 0.03709457069635391 0.05 0.0015168220270425081
89 0.03656260669231415 0.05 0.0014736291486769915
90 0.03603367507457733 0.05 0.0014313010033220053
91 0.03552437201142311 0.05 0.001391126774251461
92 0.03502887859940529 0.05 0.0013525906251743436
93 0.03452985733747482 0.05 0.0013143271207809448
94 0.03406037017703056 0.05 0.0012788292951881886
95 0.033578649163246155 0.05 0.001242911908775568

 20%|███████████████████████████████████████████████████████████████████████▌                                                                                                                                                                                                                                                                                              | 2/10 [01:21<05:26, 40.87s/it]
97 0.032668888568878174 0.05 0.001176474615931511
98 0.0322282649576664 0.05 0.001144953304901719
99 0.03179660066962242 0.05 0.001114487648010254
inversion time : 39.73511338233948
0, 0.09775816649198532
1, 0.09775816649198532
2, 0.09261544793844223
3, 0.08272601664066315
4, 0.06901420652866364
5, 0.05310671031475067
6, 0.03751768544316292
7, 0.026797739788889885
8, 0.020149998366832733
9, 0.016250882297754288
10, 0.013919259421527386
11, 0.01237128209322691
12, 0.011173520237207413
13, 0.010127127170562744
14, 0.009165521711111069
15, 0.00828060694038868
16, 0.007480118423700333
17, 0.006769545376300812
18, 0.006148870103061199
19, 0.005614227615296841
20, 0.0051631624810397625
21, 0.0047927126288414
22, 0.00449757557362318
23, 0.004268514923751354
24, 0.004090859089046717
25, 0.0039472877979278564
26, 0.0038195871748030186
27, 0.0036922607105225325
28, 0.0035553774796426296
29, 0.0034046266227960587
30, 0.0032402160577476025
31, 0.003066344652324915
32, 0.0028890406247228384
33, 0.0027153021655976772
34, 0.0025500738993287086
35, 0.0023970294278115034
36, 0.002258285414427519
37, 0.002134217182174325
38, 0.002024312037974596
39, 0.0019269976764917374
40, 0.0018405397422611713
41, 0.001763350097462535
42, 0.0016935595776885748
43, 0.0016297250986099243
44, 0.0015705833211541176
45, 0.0015150976832956076
46, 0.00146259437315166
47, 0.001412639394402504
48, 0.0013650663895532489
49, 0.0013198609231039882
50, 0.001277084811590612
51, 0.0012366573791950941
52, 0.0011987421894446015
53, 0.0011633987305685878
54, 0.0011305917287245393
55, 0.001100153662264347
56, 0.00107188755646348
57, 0.0010456106392666698
58, 0.0010210993932560086
59, 0.000998182687908411
60, 0.0009767262963578105
61, 0.0009566700900904834
62, 0.0009378049289807677
63, 0.0009202041546814144
64, 0.0009036983246915042
65, 0.0008883274858817458
66, 0.0008739802287891507
67, 0.0008606451447121799
68, 0.0008481990080326796
69, 0.0008366616675630212
70, 0.0008259445894509554
71, 0.000816077459603548
72, 0.0008069250034168363
73, 0.0007984723197296262
74, 0.0007907034596428275
75, 0.0007835935684852302
76, 0.0007770545780658722
77, 0.0007711014477536082
78, 0.0007656290545128286
79, 0.0007606790168210864
80, 0.0007562019745819271
81, 0.0007521446095779538
82, 0.0007484990637749434
83, 0.0007452426361851394
84, 0.000742355128750205
85, 0.0007398183806799352
86, 0.000737542926799506
87, 0.0007356156129390001
88, 0.0007339348085224628
89, 0.0007324974867515266
90, 0.0007312806556001306
91, 0.0007303012534976006
92, 0.000729503808543086
93, 0.000728850718587637
94, 0.0007283491431735456
95, 0.0007279971614480019
96, 0.0007277432596310973
97, 0.0007275845855474472
98, 0.0007275009993463755
99, 0.0007274531526491046
0 2.5382723808288574 0.05 8.790206909179688
1 2.384143114089966 0.05 7.75509786605835
2 2.1843175888061523 0.05 6.509598255157471
3 1.8552956581115723 0.05 4.696225166320801
4 1.4324113130569458 0.05 2.799355983734131
5 1.0298974514007568 0.05 1.447139859199524
6 0.7638465166091919 0.05 0.7960399389266968
7 0.579258143901825 0.05 0.45779067277908325
8 0.4755043089389801 0.05 0.30848318338394165
9 0.40759438276290894 0.05 0.22666215896606445
10 0.35851189494132996 0.05 0.17535969614982605
11 0.3210616409778595 0.05 0.14063695073127747
12 0.29146644473075867 0.05 0.11590437591075897
13 0.26739826798439026 0.05 0.09755279868841171
14 0.24744483828544617 0.05 0.08353710174560547
15 0.23067229986190796 0.05 0.07259614765644073
16 0.21634389460086823 0.05 0.06385749578475952
17 0.2038876712322235 0.05 0.056715864688158035
18 0.19290924072265625 0.05 0.050772521644830704
19 0.18311548233032227 0.05 0.04574806988239288
20 0.1743031144142151 0.05 0.041450802236795425
21 0.166317880153656 0.05 0.03773988038301468
22 0.15902277827262878 0.05 0.03450176492333412
23 0.15234407782554626 0.05 0.03166458010673523
24 0.14620336890220642 0.05 0.029163353145122528
25 0.14053846895694733 0.05 0.02694716304540634
26 0.13529707491397858 0.05 0.024974647909402847
27 0.13043993711471558 0.05 0.023213669657707214
28 0.12590737640857697 0.05 0.021628428250551224
29 0.1216743215918541 0.05 0.02019856497645378
30 0.117716945707798 0.05 0.018906041979789734
31 0.1139986664056778 0.05 0.01773054711520672
