
  0%|                                                                                                                                                                                                                                                                                                                                                                              | 0/10 [00:00<?, ?it/s]
0, 0.1364392638206482
1, 0.1364392638206482
2, 0.1297924667596817
3, 0.11694802343845367
4, 0.0989360436797142
5, 0.07756029069423676
6, 0.05549612268805504
7, 0.03877308964729309
8, 0.027045486494898796
9, 0.01948973350226879
10, 0.01503816805779934
11, 0.012640587985515594
12, 0.011447688564658165
13, 0.010865185409784317
14, 0.010523617267608643
15, 0.01021556742489338
16, 0.009841430000960827
17, 0.009367072954773903
18, 0.00880515482276678
19, 0.008181027136743069
20, 0.007529818918555975
21, 0.0068803890608251095
22, 0.0062619782984256744
23, 0.005697009619325399
24, 0.005200959742069244
25, 0.004778037779033184
26, 0.00442538782954216
27, 0.0041367607191205025
28, 0.0039021256379783154
29, 0.0037089656107127666
30, 0.0035453084856271744
31, 0.0034007574431598186
32, 0.003265877952799201
33, 0.0031345561146736145
34, 0.003003036370500922
35, 0.002868825104087591
36, 0.0027321074157953262
37, 0.0025935012381523848
38, 0.002454790286719799
39, 0.0023181417491286993
40, 0.0021859153639525175
41, 0.002059884835034609
42, 0.001941717928275466
43, 0.0018322677351534367
44, 0.0017321186605840921
45, 0.0016413303092122078
46, 0.0015595078002661467
47, 0.0014860619558021426
48, 0.0014202877646312118
49, 0.0013612192124128342
50, 0.0013079302152618766
51, 0.0012596785090863705
52, 0.001215618452988565
53, 0.0011752515565603971
54, 0.0011379243806004524
55, 0.001103394664824009
56, 0.0010712918592616916
57, 0.0010414266726002097
58, 0.0010135886259377003
59, 0.0009876744588837028
60, 0.000963578699156642
61, 0.0009412770159542561
62, 0.0009204824455082417
63, 0.0009013200178742409
64, 0.0008836077759042382
65, 0.0008672384428791702
66, 0.0008522217976860702
67, 0.000838336069136858
68, 0.0008256089640781283
69, 0.0008138676057569683
70, 0.0008030940662138164
71, 0.0007932445732876658
72, 0.0007841350743547082
73, 0.0007758497959002852
74, 0.0007682577124796808
75, 0.0007613161578774452
76, 0.0007549235597252846
77, 0.0007491246797144413
78, 0.0007438611937686801
79, 0.0007390679675154388
80, 0.0007347317296080291
81, 0.0007308537024073303
82, 0.0007273419760167599
83, 0.000724234152585268
84, 0.0007214527577161789
85, 0.000718951690942049
86, 0.0007168163429014385
87, 0.0007149726152420044
88, 0.0007133317994885147
89, 0.000711998320184648
90, 0.0007108530844561756
91, 0.000709894928149879
92, 0.0007091163424775004
93, 0.0007084959652274847
94, 0.0007079974166117609
95, 0.0007076744805090129
96, 0.0007074357708916068
97, 0.0007072743028402328
98, 0.0007071906584315002
99, 0.0007071612635627389
0 2.4191110134124756 0.05 7.640562057495117 0.783714771270752
1 2.259066104888916 0.05 6.663026809692383 0.7295682430267334
2 2.0915818214416504 0.05 5.711674690246582 0.6783556938171387
3 1.8938289880752563 0.05 4.682687759399414 0.6386752128601074
4 1.6141166687011719 0.05 3.401602029800415 0.6276514530181885
5 1.2362314462661743 0.05 1.9953233003616333 0.6396750807762146
6 0.8045650720596313 0.05 0.8451542258262634 0.6673959493637085
7 0.5749073624610901 0.05 0.43152838945388794 0.6449470520019531
8 0.4720776081085205 0.05 0.29096484184265137 0.6273180246353149
9 0.3923092484474182 0.05 0.2009420096874237 0.6121787428855896
10 0.3378237187862396 0.05 0.14900262653827667 0.5995949506759644
11 0.29667118191719055 0.05 0.11491172760725021 0.590557873249054
12 0.26518872380256653 0.05 0.09181715548038483 0.5842866897583008
13 0.240066796541214 0.05 0.07524503767490387 0.579927921295166
14 0.21956436336040497 0.05 0.0629415512084961 0.5767841935157776
15 0.2026488035917282 0.05 0.05361691117286682 0.5745179653167725
16 0.1885208636522293 0.05 0.046401552855968475 0.5729352831840515
17 0.17651750147342682 0.05 0.04068077355623245 0.5718705654144287
18 0.166188046336174 0.05 0.03605896607041359 0.5712066292762756
19 0.15712101757526398 0.05 0.03223162889480591 0.5708708167076111
20 0.1490652859210968 0.05 0.02901126816868782 0.570776104927063
21 0.14182980358600616 0.05 0.026263263076543808 0.5708650350570679
22 0.13528123497962952 0.05 0.023893993347883224 0.5710835456848145
23 0.12932159006595612 0.05 0.021835127845406532 0.5714229345321655
24 0.12385421246290207 0.05 0.02002789080142975 0.5718098878860474
25 0.11884255707263947 0.05 0.01843986101448536 0.5722297430038452
26 0.11421627551317215 0.05 0.017032159492373466 0.5726696848869324
27 0.10993795096874237 0.05 0.015780070796608925 0.5731170773506165
28 0.10597771406173706 0.05 0.01466367207467556 0.5735527276992798
29 0.10228583961725235 0.05 0.013659811578691006 0.5739853382110596
30 0.09883973002433777 0.05 0.012754891067743301 0.5744019150733948
31 0.09561654180288315 0.05 0.011936575174331665 0.5747787356376648
32 0.09259650856256485 0.05 0.01119445450603962 0.575140118598938
33 0.08974279463291168 0.05 0.010515086352825165 0.5754702091217041
34 0.08704593777656555 0.05 0.009892605245113373 0.5757924914360046
35 0.08449675887823105 0.05 0.009321670979261398 0.576094388961792
36 0.08207748085260391 0.05 0.008795524016022682 0.5763722062110901
37 0.07977338880300522 0.05 0.008308636024594307 0.5766335725784302
38 0.07758382707834244 0.05 0.007858796045184135 0.5768686532974243
39 0.07549160718917847 0.05 0.0074406517669558525 0.5770866274833679
40 0.07349058240652084 0.05 0.007051428314298391 0.5773068070411682
41 0.07157090306282043 0.05 0.0066878534853458405 0.5775004625320435
42 0.06972897052764893 0.05 0.006348048336803913 0.5776845216751099
43 0.06796140223741531 0.05 0.006030292250216007 0.5778575539588928
44 0.06626477837562561 0.05 0.005732963792979717 0.5780129432678223
45 0.0646275132894516 0.05 0.005453163757920265 0.5781795978546143
46 0.06305582821369171 0.05 0.005191157106310129 0.5783131718635559
47 0.06153862550854683 0.05 0.004944350570440292 0.5784573554992676
48 0.06007600203156471 0.05 0.004712113179266453 0.5785725116729736
49 0.058658890426158905 0.05 0.00449243001639843 0.578691840171814
50 0.05729302763938904 0.05 0.0042856549844145775 0.5788043141365051
51 0.055972110480070114 0.05 0.004090317524969578 0.5789033770561218
52 0.05469091236591339 0.05 0.0039052064530551434 0.5790075659751892
53 0.053457703441381454 0.05 0.003731077304109931 0.5791053771972656
54 0.05226239562034607 0.05 0.003566090017557144 0.5792036056518555
55 0.05110121890902519 0.05 0.003409386146813631 0.5792751312255859
56 0.04997378960251808 0.05 0.003260605502873659 0.5793571472167969
57 0.04888984560966492 0.05 0.003120692912489176 0.5794364213943481
58 0.04783036559820175 0.05 0.002986902603879571 0.579505443572998
59 0.04680430889129639 0.05 0.00286012701690197 0.5795701742172241
60 0.04580748453736305 0.05 0.002739596413448453 0.5796341300010681
61 0.04484318941831589 0.05 0.0026254672557115555 0.5796909928321838
62 0.04390343651175499 0.05 0.0025165798142552376 0.5797543525695801
63 0.042990561574697495 0.05 0.00241301441565156 0.5798115134239197
64 0.04210657253861427 0.05 0.0023147999309003353 0.579862117767334
65 0.04124501720070839 0.05 0.002221041126176715 0.5799075365066528
66 0.040408503264188766 0.05 0.0021318625658750534 0.5799632668495178
67 0.039594583213329315 0.05 0.002046846318989992 0.5800045728683472
68 0.03880409151315689 0.05 0.001965933246538043 0.5800384879112244
69 0.038033053278923035 0.05 0.0018885829485952854 0.5800756216049194
70 0.03728831186890602 0.05 0.0018153449054807425 0.5801098346710205
71 0.03655867278575897 0.05 0.0017449960578233004 0.5801461935043335
72 0.03584766015410423 0.05 0.0016777811106294394 0.5801812410354614
73 0.03515778109431267 0.05 0.0016138255596160889 0.5802136063575745
74 0.0344870425760746 0.05 0.001552836038172245 0.5802425146102905
75 0.03383166342973709 0.05 0.0014943777350708842 0.5802669525146484
76 0.0331902876496315 0.05 0.0014382542576640844 0.5802915096282959
77 0.03256988525390625 0.05 0.001384988659992814 0.5803095102310181
78 0.031969744712114334 0.05 0.0013344186590984464 0.580330491065979
79 0.03137415274977684 0.05 0.0012851612409576774 0.5803520083427429
80 0.030801935121417046 0.05 0.0012387100141495466 0.5803619623184204
81 0.030240317806601524 0.05 0.001193950534798205 0.5803831815719604
82 0.029694771394133568 0.05 0.0011512604542076588 0.5803982019424438
83 0.029161453247070312 0.05 0.001110278768464923 0.5804092884063721
84 0.028644103556871414 0.05 0.0010712335351854563 0.5804243087768555
85 0.028132813051342964 0.05 0.001033332198858261 0.5804353356361389
86 0.027640091255307198 0.05 0.0009974533459171653 0.5804386138916016
87 0.027153216302394867 0.05 0.0009626229293644428 0.5804605484008789
88 0.026679474860429764 0.05 0.0009293262846767902 0.5804741382598877
89 0.026224816218018532 0.05 0.0008979219710454345 0.5804596543312073
90 0.025775911286473274 0.05 0.0008674445562064648 0.5804718732833862
91 0.02533338963985443 0.05 0.00083791563520208 0.5804738998413086
92 0.02490333840250969 0.05 0.0008097087848000228 0.5804770588874817
93 0.024485116824507713 0.05 0.0007827408844605088 0.5804823637008667
94 0.024078188464045525 0.05 0.0007569396402686834 0.5804890394210815
95 0.023678090423345566 0.05 0.0007319931173697114 0.5804870128631592
96 0.02328638918697834 0.05 0.000707975123077631 0.5804724097251892
97 0.02290508709847927 0.05 0.0006849794881418347 0.5804808735847473
98 0.022529136389493942 0.05 0.000662678387016058 0.580483615398407
99 0.022167088463902473 0.05 0.0006415506359189749 0.5804814100265503

 10%|███████████████████████████████████▊                                                                                                                                                                                                                                                                                                                                  | 1/10 [00:41<06:12, 41.37s/it]
0, 0.1123598963022232
1, 0.1123598963022232
2, 0.10478784143924713
3, 0.09046944230794907
4, 0.07124531269073486
5, 0.05020028352737427
6, 0.03146940469741821
7, 0.020330235362052917
8, 0.014868523925542831
9, 0.012927885167300701
10, 0.012789866887032986
11, 0.01334235817193985
12, 0.013981901109218597
13, 0.014439260587096214
14, 0.014627477154135704
15, 0.01455589197576046
16, 0.014270294457674026
17, 0.013828180730342865
18, 0.013284235261380672
19, 0.012678737752139568
20, 0.012041646055877209
21, 0.011393671855330467
22, 0.010748907923698425
23, 0.010115953162312508
24, 0.009504216723144054
25, 0.00891931727528572
26, 0.008368391543626785
27, 0.007856665179133415
28, 0.007387876510620117
29, 0.006962797604501247
30, 0.0065817381255328655
31, 0.006242156028747559
32, 0.005939002614468336
33, 0.005667731165885925
34, 0.005423226859420538
35, 0.005200362764298916
36, 0.004994878079742193
37, 0.004803362302482128
38, 0.004623578395694494
39, 0.0044543566182255745
40, 0.004294794052839279
41, 0.004144156351685524
42, 0.0040021310560405254
43, 0.003868585918098688
44, 0.0037434748373925686
45, 0.003626882564276457
46, 0.003518788143992424
47, 0.003418761072680354
48, 0.0033264202065765858
49, 0.0032414186280220747
50, 0.0031635561026632786
51, 0.0030921008437871933
52, 0.003026589285582304
53, 0.002966487780213356
54, 0.0029112189076840878
55, 0.0028602981474250555
56, 0.002813206985592842
57, 0.002769543556496501
58, 0.0027288924902677536
59, 0.0026911101303994656
60, 0.0026559270918369293
61, 0.002623095642775297
62, 0.0025924481451511383
63, 0.0025639007799327374
64, 0.0025372132658958435
65, 0.0025123385712504387
66, 0.0024891868233680725
67, 0.00246753403916955
68, 0.0024474177043884993
69, 0.0024286690168082714
70, 0.002411266090348363
71, 0.0023951325565576553
72, 0.002380190882831812
73, 0.0023663686588406563
74, 0.0023536127991974354
75, 0.0023418546188622713
76, 0.0023310421966016293
77, 0.0023211664520204067
78, 0.002312135649845004
79, 0.002303847810253501
80, 0.0022963217925280333
81, 0.0022895417641848326
82, 0.0022834499832242727
83, 0.0022779733408242464
84, 0.0022730566561222076
85, 0.0022687194868922234
86, 0.0022648966405540705
87, 0.0022615871857851744
88, 0.0022587254643440247
89, 0.002256272127851844
90, 0.0022542132064700127
91, 0.002252487000077963
92, 0.0022511209826916456
93, 0.002250042511150241
94, 0.002249180804938078
95, 0.0022485461086034775
96, 0.002248132135719061
97, 0.0022478383034467697
98, 0.002247678581625223
99, 0.0022476096637547016
0 2.7173709869384766 0.05 8.1397705078125 0.8107007145881653
1 2.555798292160034 0.05 7.200578212738037 0.7657264471054077
2 2.38456654548645 0.05 6.268059730529785 0.7249361276626587
3 2.1907248497009277 0.05 5.2904181480407715 0.6926288604736328
4 1.943762183189392 0.05 4.164860725402832 0.6777474880218506
5 1.5791178941726685 0.05 2.7488014698028564 0.7054334878921509
6 1.176599144935608 0.05 1.5260590314865112 0.757290244102478
7 0.8704923987388611 0.05 0.8353032469749451 0.7775231599807739
8 0.7088176012039185 0.05 0.5538386106491089 0.7666518688201904
9 0.5970287919044495 0.05 0.3929206430912018 0.7520196437835693
10 0.5068632960319519 0.05 0.28320175409317017 0.7369181513786316
11 0.4346623718738556 0.05 0.2082659900188446 0.7239807844161987
12 0.3818177878856659 0.05 0.16070397198200226 0.7128272652626038
13 0.34114545583724976 0.05 0.12829019129276276 0.7042310833930969
14 0.3084622025489807 0.05 0.10488616675138474 0.697547197341919
15 0.2815141975879669 0.05 0.0873604491353035 0.6922920942306519
16 0.2589590549468994 0.05 0.07392245531082153 0.6881406307220459
17 0.2398000955581665 0.05 0.0633888691663742 0.6848660707473755
18 0.22331567108631134 0.05 0.054973408579826355 0.6822936534881592
19 0.2089952528476715 0.05 0.0481489822268486 0.6802666187286377
20 0.19649434089660645 0.05 0.04256124794483185 0.678642749786377
21 0.18550610542297363 0.05 0.03793417662382126 0.677314043045044
22 0.17579273879528046 0.05 0.0340656042098999 0.6762121319770813
23 0.16715098917484283 0.05 0.03079868108034134 0.6752853393554688
24 0.15940295159816742 0.05 0.028009604662656784 0.6744710803031921
25 0.15240687131881714 0.05 0.025604914873838425 0.6737964153289795
26 0.14605695009231567 0.05 0.023515740409493446 0.6732008457183838
27 0.1402428299188614 0.05 0.021680817008018494 0.6726735830307007
28 0.13489747047424316 0.05 0.020059581845998764 0.6722338199615479
29 0.1299525648355484 0.05 0.01861589588224888 0.6718447804450989
30 0.12536340951919556 0.05 0.017324302345514297 0.6715056896209717
31 0.1210850179195404 0.05 0.016162000596523285 0.6712026596069336
32 0.11708609759807587 0.05 0.015112103894352913 0.6709207892417908
33 0.11331823468208313 0.05 0.014155130833387375 0.6706801652908325
34 0.10978322476148605 0.05 0.013285755179822445 0.6704617142677307
35 0.10644320398569107 0.05 0.012489646673202515 0.6702426075935364
36 0.10329477488994598 0.05 0.011761723086237907 0.6700708866119385
37 0.10030577331781387 0.05 0.011090882122516632 0.6698805093765259
38 0.09747860580682755 0.05 0.010474490001797676 0.6697242259979248
39 0.09478368610143661 0.05 0.009903334081172943 0.6695761680603027
40 0.09223534911870956 0.05 0.009377975016832352 0.6694315075874329
41 0.08980601280927658 0.05 0.008890477009117603 0.6692904829978943
42 0.08748511970043182 0.05 0.008436894044280052 0.6691482067108154
43 0.08527325093746185 0.05 0.008015671744942665 0.6690210103988647
44 0.08316605538129807 0.05 0.007624413818120956 0.6689016819000244
45 0.08115056902170181 0.05 0.007259344682097435 0.668782114982605
46 0.07922486960887909 0.05 0.006918903905898333 0.6686530113220215
47 0.07737108319997787 0.05 0.006598901003599167 0.668541431427002
48 0.07560331374406815 0.05 0.006300803739577532 0.6684149503707886
49 0.07390029728412628 0.05 0.006020140368491411 0.6683017015457153
50 0.0722665935754776 0.05 0.0057569099590182304 0.6681755185127258
51 0.07069374620914459 0.05 0.0055090440437197685 0.6680635809898376
52 0.0691872388124466 0.05 0.005276746582239866 0.6679524183273315
53 0.06772997230291367 0.05 0.005056802183389664 0.6678332686424255
54 0.06632739305496216 0.05 0.00484953448176384 0.6677134037017822
55 0.06497198343276978 0.05 0.0046533579006791115 0.6675972938537598
56 0.06367312371730804 0.05 0.0044691660441458225 0.6674802899360657
57 0.06240474432706833 0.05 0.004292887635529041 0.6673641204833984
58 0.06118144094944 0.05 0.0041262321174144745 0.6672265529632568
59 0.06000334024429321 0.05 0.0039688535034656525 0.6671231985092163
60 0.05885893106460571 0.05 0.0038189059123396873 0.6670103073120117
61 0.05775557458400726 0.05 0.003677071537822485 0.6668881177902222
62 0.05668707191944122 0.05 0.0035422754008322954 0.6667734384536743
63 0.05564570799469948 0.05 0.00341332470998168 0.6666485071182251
64 0.05463895946741104 0.05 0.003290933556854725 0.6665380001068115
65 0.05366518348455429 0.05 0.003174677025526762 0.6664320230484009
66 0.05271303281188011 0.05 0.003063023090362549 0.6662970781326294
67 0.05178959667682648 0.05 0.0029566457960754633 0.6661847829818726
68 0.05089382454752922 0.05 0.002855252008885145 0.6660703420639038
69 0.05001869797706604 0.05 0.0027579034212976694 0.6659684181213379
70 0.0491737425327301 0.05 0.002665512962266803 0.6658373475074768
71 0.04834744706749916 0.05 0.002576685044914484 0.6657183170318604
72 0.04754696413874626 0.05 0.0024920678697526455 0.6656144857406616
73 0.04676990956068039 0.05 0.002411278197541833 0.6654845476150513
74 0.0460110642015934 0.05 0.0023336666636168957 0.6653867959976196
75 0.04526505619287491 0.05 0.0022586053237318993 0.6652617454528809
76 0.044539451599121094 0.05 0.0021867745090276003 0.6651554107666016
77 0.04383569583296776 0.05 0.0021182154305279255 0.6650504469871521
78 0.04314914718270302 0.05 0.002052384428679943 0.6649374961853027
79 0.04248027876019478 0.05 0.0019892482087016106 0.6648283004760742
80 0.041820816695690155 0.05 0.0019279655534774065 0.6647191047668457
81 0.0411786213517189 0.05 0.0018692088779062033 0.6645958423614502
82 0.04055684432387352 0.05 0.0018131867982447147 0.6645029783248901
83 0.039948515594005585 0.05 0.0017592012882232666 0.6643886566162109
84 0.039348751306533813 0.05 0.0017067748121917248 0.6642919778823853
85 0.03876512125134468 0.05 0.0016565193654969335 0.6641826033592224
86 0.038197800517082214 0.05 0.0016083887312561274 0.66408371925354
87 0.03764520585536957 0.05 0.0015621890779584646 0.6639765501022339
88 0.03708510473370552 0.05 0.001516049262136221 0.66385817527771
89 0.036558907479047775 0.05 0.0014733320567756891 0.6637706756591797
90 0.03603857010602951 0.05 0.0014316912274807692 0.6636703610420227
91 0.03552337363362312 0.05 0.0013910498237237334 0.6635589599609375
92 0.03502386808395386 0.05 0.0013522047083824873 0.663467526435852
93 0.03453374654054642 0.05 0.001314624329097569 0.6633582711219788
94 0.03405698761343956 0.05 0.0012785765575245023 0.6632659435272217
95 0.03358271345496178 0.05 0.0012432136572897434 0.6631711721420288
96 0.03312509134411812 0.05 0.0012095628771930933 0.6630851030349731
97 0.0326707623898983 0.05 0.0011766109382733703 0.6629781126976013
98 0.03222551941871643 0.05 0.0011447591241449118 0.6628944277763367
99 0.03179474174976349 0.05 0.0011143583105877042 0.66280198097229

 20%|███████████████████████████████████████████████████████████████████████▌                                                                                                                                                                                                                                                                                              | 2/10 [01:22<05:29, 41.16s/it]
0, 0.09775816649198532
1, 0.09775816649198532
2, 0.09261494874954224
3, 0.08272574096918106
4, 0.06901435554027557
5, 0.05310680717229843
6, 0.037517815828323364
7, 0.026797762140631676
8, 0.020150069147348404
9, 0.016250789165496826
