
  0%|                                                                                                                                                                                                                                                                                            | 0/10 [00:00<?, ?it/s]
0, 0.1364392638206482
1, 0.1364392638206482
2, 0.129792258143425
3, 0.11694806814193726
4, 0.098936066031456
5, 0.0775601863861084
6, 0.05549619346857071
7, 0.03877317160367966
8, 0.027045466005802155
9, 0.019489705562591553
10, 0.015038157813251019
11, 0.012640587985515594
12, 0.011447673663496971
13, 0.01086522452533245
14, 0.010523606091737747
15, 0.010215586051344872
16, 0.0098414346575737
17, 0.009367089718580246
18, 0.00880509428679943
19, 0.008180901408195496
20, 0.007529722061008215
21, 0.006880328990519047
22, 0.006261925213038921
23, 0.00569700263440609
24, 0.005201056599617004
25, 0.004777909256517887
26, 0.004425357561558485
27, 0.004136723931878805
28, 0.0039021156262606382
29, 0.0037089912220835686
30, 0.003545319428667426
31, 0.003400734392926097
32, 0.003265905659645796
33, 0.0031345365568995476
34, 0.003003009594976902
35, 0.0028688430320471525
36, 0.0027321220841258764
37, 0.0025934730656445026
38, 0.002454763278365135
39, 0.002318158745765686
40, 0.002185915131121874
41, 0.002059840364381671
42, 0.0019417100120335817
43, 0.0018323115073144436
44, 0.0017320889746770263
45, 0.0016413157572969794
46, 0.0015595256118103862
47, 0.0014860299415886402
48, 0.0014202538877725601
49, 0.0013612143229693174
50, 0.0013079307973384857
51, 0.0012596675660461187
52, 0.001215618452988565
53, 0.001175247016362846
54, 0.0011379015631973743
55, 0.0011033888440579176
56, 0.001071305014193058
57, 0.0010414167772978544
58, 0.0010135781485587358
59, 0.0009877011179924011
60, 0.000963584054261446
61, 0.0009412973886355758
62, 0.0009204777888953686
63, 0.0009013260714709759
64, 0.0008836053311824799
65, 0.0008672573603689671
66, 0.0008522287826053798
67, 0.0008383274544030428
68, 0.0008256117580458522
69, 0.000813861726783216
70, 0.0008030903991311789
71, 0.0007932267035357654
72, 0.0007841463084332645
73, 0.0007758571300655603
74, 0.0007682380964979529
75, 0.0007612982299178839
76, 0.0007549230940639973
77, 0.000749118800740689
78, 0.0007438469910994172
79, 0.0007390733808279037
80, 0.0007347326027229428
81, 0.0007308172062039375
82, 0.0007273380178958178
83, 0.0007242247229442
84, 0.0007214515353552997
85, 0.0007189431926235557
86, 0.0007168441079556942
87, 0.0007149684242904186
88, 0.0007133303442969918
89, 0.000711984874214977
90, 0.0007108435966074467
91, 0.0007098698406480253
92, 0.000709111278411001
93, 0.0007084893295541406
94, 0.0007080073701217771
95, 0.0007076698238961399
96, 0.0007074220920912921
97, 0.0007072774460539222
98, 0.0007071878062561154
99, 0.0007071355357766151
0 2.419106960296631 0.05 7.640527725219727
1 2.259058952331543 0.05 6.662978172302246
2 2.0915749073028564 0.05 5.711629867553711
3 1.89381742477417 0.05 4.682625770568848
4 1.6141148805618286 0.05 3.4015910625457764
5 1.2362425327301025 0.05 1.9953570365905762
6 0.8045667409896851 0.05 0.8451570272445679
7 0.5749019980430603 0.05 0.43151989579200745
8 0.4720742106437683 0.05 0.29096028208732605
9 0.3923163414001465 0.05 0.2009490728378296
10 0.33781322836875916 0.05 0.14899323880672455
11 0.2966761589050293 0.05 0.11491547524929047
12 0.26517945528030396 0.05 0.09181062877178192
13 0.24006801843643188 0.05 0.07524573057889938
14 0.21956971287727356 0.05 0.06294454634189606
15 0.20264758169651031 0.05 0.05361620709300041
16 0.18850865960121155 0.05 0.046395499259233475
17 0.17651982605457306 0.05 0.04068180173635483
18 0.1661957949399948 0.05 0.03606228530406952
39 0.07549028843641281 0.05 0.007440384477376938
20 0.14905528724193573 0.05 0.02900734543800354
21 0.14183254539966583 0.05 0.0262642540037632
22 0.13528671860694885 0.05 0.023895908147096634
23 0.12931416928768158 0.05 0.021832600235939026
24 0.12385418266057968 0.05 0.02002786099910736
25 0.11883677542209625 0.05 0.018438048660755157
26 0.11421305686235428 0.05 0.01703118160367012
27 0.10994172841310501 0.05 0.015781138092279434
28 0.10597720742225647 0.05 0.014663518406450748
29 0.10228786617517471 0.05 0.013660338707268238
30 0.09884105622768402 0.05 0.012755220755934715
31 0.0956205502152443 0.05 0.011937563307583332
32 0.09259290993213654 0.05 0.01119357068091631
33 0.0897415280342102 0.05 0.010514778085052967
34 0.08704762905836105 0.05 0.009892979636788368
35 0.0844968855381012 0.05 0.009321688674390316
36 0.08208048343658447 0.05 0.008796158246695995
37 0.07977645099163055 0.05 0.008309265598654747
38 0.07757912576198578 0.05 0.007857835851609707
39 0.07549028843641281 0.05 0.007440384477376938
40 0.07348667085170746 0.05 0.007050670217722654
41 0.07157022505998611 0.05 0.006687719374895096
42 0.06972901523113251 0.05 0.006348049268126488
43 0.0679628923535347 0.05 0.006030550226569176
44 0.06626186519861221 0.05 0.005732453428208828
45 0.06462801247835159 0.05 0.005453241989016533
46 0.06305444240570068 0.05 0.005190923344343901
47 0.06153888627886772 0.05 0.004944386892020702
48 0.060071855783462524 0.05 0.0047114575281739235
49 0.05866014584898949 0.05 0.004492618143558502
50 0.057293303310871124 0.05 0.004285692237317562
51 0.05597153678536415 0.05 0.004090229514986277
52 0.05469636619091034 0.05 0.0039059817790985107
53 0.05345939099788666 0.05 0.0037313089706003666
54 0.05225872993469238 0.05 0.00356558570638299
55 0.05110159516334534 0.05 0.003409432712942362
56 0.04997478052973747 0.05 0.003260731464251876
57 0.048886362463235855 0.05 0.0031202449463307858
58 0.04782962054014206 0.05 0.0029868066776543856
59 0.04680142551660538 0.05 0.0028597719501703978
60 0.045810192823410034 0.05 0.0027399170212447643
61 0.04484303668141365 0.05 0.002625446766614914
62 0.04390011355280876 0.05 0.0025161958765238523
63 0.042992908507585526 0.05 0.002413275185972452
64 0.04210633412003517 0.05 0.0023147715255618095
65 0.04124480113387108 0.05 0.0022210157476365566
66 0.040408577769994736 0.05 0.002131868153810501
67 0.03959706425666809 0.05 0.002047100570052862
68 0.03880312293767929 0.05 0.0019658326636999846
69 0.03803129866719246 0.05 0.0018884066957980394
70 0.03728502616286278 0.05 0.0018150229007005692
71 0.03655571863055229 0.05 0.0017447123536840081
72 0.035849567502737045 0.05 0.0016779580619186163
73 0.035158321261405945 0.05 0.0016138737555593252
74 0.034484606236219406 0.05 0.0015526148490607738
75 0.03383314236998558 0.05 0.001494507072493434
76 0.033191002905368805 0.05 0.0014383149100467563
77 0.03257470205426216 0.05 0.0013853965792804956
78 0.031967103481292725 0.05 0.0013341964222490788
79 0.031376566737890244 0.05 0.001285357866436243
80 0.030798742547631264 0.05 0.0012384520377963781
81 0.030241895467042923 0.05 0.0011940740514546633
82 0.029695186764001846 0.05 0.0011512916535139084
83 0.029162844642996788 0.05 0.0011103834258392453
84 0.028639165684580803 0.05 0.0010708632180467248
85 0.028134288266301155 0.05 0.0010334395337849855
86 0.027636613696813583 0.05 0.00099720130674541
87 0.027158226817846298 0.05 0.000962977297604084
88 0.026683442294597626 0.05 0.0009296016069129109
89 0.026223089545965195 0.05 0.0008978027617558837
90 0.025774063542485237 0.05 0.0008673194097355008
91 0.025334743782877922 0.05 0.0008380043436773121
92 0.024905845522880554 0.05 0.0008098708349280059
93 0.02448802813887596 0.05 0.0007829262176528573
94 0.0240776464343071 0.05 0.0007569048320874572
95 0.023677581921219826 0.05 0.0007319609867408872
96 0.02328485995531082 0.05 0.0007078814087435603
97 0.02290218695998192 0.05 0.0006848053308203816
98 0.022529324516654015 0.05 0.0006626887479797006
99 0.02216380648314953 0.05 0.0006413600640371442
100 0.02180531620979309 0.05 0.0006207804544828832
101 0.021458158269524574 0.05 0.0006011711666360497
102 0.021116148680448532 0.05 0.0005821603699587286
103 0.020780500024557114 0.05 0.0005638001603074372
104 0.02045326493680477 0.05 0.0005461834371089935
105 0.0201377272605896 0.05 0.0005294611910358071
106 0.01982172764837742 0.05 0.0005129750352352858
107 0.019515374675393105 0.05 0.00049724115524441
108 0.01921694353222847 0.05 0.00048214959679171443
109 0.018917936831712723 0.05 0.00046726231812499464
110 0.01862926036119461 0.05 0.000453110842499882
111 0.018351247534155846 0.05 0.0004396878066472709
112 0.01807555742561817 0.05 0.00042657615267671645
113 0.017805190756917 0.05 0.0004139105440117419
114 0.01753704622387886 0.05 0.0004015374870505184
115 0.0172791238874197 0.05 0.00038981327088549733
116 0.017023999243974686 0.05 0.00037838719435967505
117 0.016774946823716164 0.05 0.0003673969767987728
118 0.01653064414858818 0.05 0.0003567736130207777
119 0.016290144994854927 0.05 0.0003464680048637092
120 0.01605517975986004 0.05 0.0003365452867001295
121 0.015824509784579277 0.05 0.00032694434048607945
122 0.015598347410559654 0.05 0.00031766577740199864
123 0.015375364571809769 0.05 0.00030864839209243655
124 0.01515869703143835 0.05 0.00030001081177033484
125 0.014943776652216911 0.05 0.000291564007056877
126 0.014739571139216423 0.05 0.00028365006437525153
127 0.014527971856296062 0.05 0.0002755644381977618
128 0.014330592937767506 0.05 0.0002681275946088135
129 0.014134246855974197 0.05 0.0002608305949252099
130 0.013937311246991158 0.05 0.0002536128449719399
131 0.013744356110692024 0.05 0.00024663915974088013
132 0.013559557497501373 0.05 0.00024005140585359186
133 0.013373206369578838 0.05 0.00023349860566668212
134 0.013195238076150417 0.05 0.00022732524666935205
135 0.013018034398555756 0.05 0.00022126059047877789
136 0.01283804327249527 0.05 0.00021518446737900376
137 0.012670191004872322 0.05 0.00020959432004019618
138 0.01250213012099266 0.05 0.00020407098054420203
139 0.012335732579231262 0.05 0.0001986749703064561
140 0.012173938564956188 0.05 0.00019349754438735545
141 0.012013886123895645 0.05 0.00018844311125576496
142 0.011857458390295506 0.05 0.00018356778309680521
143 0.0117101538926363 0.05 0.00017903521074913442
144 0.011554164811968803 0.05 0.0001742971653584391
145 0.011404119431972504 0.05 0.0001697996340226382
146 0.011261960491538048 0.05 0.0001655927044339478
147 0.011113756336271763 0.05 0.00016126308764796704
148 0.01097178552299738 0.05 0.0001571693574078381
149 0.010831349529325962 0.05 0.00015317164070438594
150 0.010698745958507061 0.05 0.00014944415306672454
151 0.010564667172729969 0.05 0.00014572191867046058
152 0.01042699720710516 0.05 0.00014194881077855825
153 0.010298280045390129 0.05 0.0001384658389724791
154 0.0101694967597723 0.05 0.00013502438378054649
155 0.010044457390904427 0.05 0.00013172440230846405
156 0.00991844292730093 0.05 0.00012843997683376074
157 0.009799567051231861 0.05 0.00012537962174974382
158 0.009676788933575153 0.05 0.00012225758109707385
159 0.00956004299223423 0.05 0.00011932539928238839
160 0.00944049283862114 0.05 0.00011635969713097438
161 0.009324424900114536 0.05 0.00011351605644449592
162 0.009214368648827076 0.05 0.00011085221194662154
163 0.009106829762458801 0.05 0.00010827984078787267
164 0.008999938145279884 0.05 0.00010575290798442438
165 0.008888138458132744 0.05 0.00010314183600712568
166 0.008782021701335907 0.05 0.00010069367999676615
167 0.00867460947483778 0.05 9.824560402194038e-05
168 0.008577981032431126 0.05 9.606902312953025e-05
169 0.008476381190121174 0.05 9.380678238812834e-05
170 0.00837269052863121 0.05 9.152576240012422e-05
171 0.008276074193418026 0.05 8.94256227184087e-05
172 0.008179612457752228 0.05 8.735318260733038e-05
173 0.008090630173683167 0.05 8.546296885469928e-05
174 0.007988311350345612 0.05 8.331500430358574e-05
175 0.007897450588643551 0.05 8.143048034980893e-05
176 0.007805551402270794 0.05 7.954637840157375e-05
177 0.007717608008533716 0.05 7.77640234446153e-05
178 0.007628348655998707 0.05 7.597562944283709e-05
179 0.007541569881141186 0.05 7.425689545925707e-05
180 0.007457176223397255 0.05 7.260424899868667e-05
181 0.007370425388216972 0.05 7.092484156601131e-05
182 0.0072877733036875725 0.05 6.934304838068783e-05
183 0.007207759190350771 0.05 6.782873970223591e-05
184 0.007123943883925676 0.05 6.626042886637151e-05
185 0.007048747036606073 0.05 6.486897473223507e-05
186 0.006965469103306532 0.05 6.334522913675755e-05
187 0.006889660377055407 0.05 6.197390030138195e-05
188 0.006812055129557848 0.05 6.0585614846786484e-05
189 0.006732580717653036 0.05 5.9180190874030814e-05
190 0.006662464234977961 0.05 5.795394827146083e-05
191 0.006592957302927971 0.05 5.675103238900192e-05
192 0.006515661720186472 0.05 5.542813232750632e-05
193 0.006443628575652838 0.05 5.4209358495427296e-05
194 0.00637828977778554 0.05 5.311555287335068e-05
195 0.00630394509062171 0.05 5.188455543247983e-05
196 0.00623810151591897 0.05 5.0806360377464443e-05
197 0.006167102605104446 0.05 4.965643893228844e-05
198 0.00610005808994174 0.05 4.8582645831629634e-05
199 0.006034033372998238 0.05 4.753665052703582e-05
200 0.00596911134198308 0.05 4.6519235183950514e-05
201 0.0059105828404426575 0.05 4.5611443056259304e-05
202 0.005846077110618353 0.05 4.462130891624838e-05
203 0.005783150903880596 0.05 4.366588473203592e-05
204 0.005725440569221973 0.05 4.279874701751396e-05
205 0.005661089438945055 0.05 4.184207500657067e-05
206 0.005609201267361641 0.05 4.1078565118368715e-05
207 0.005540913436561823 0.05 4.0084451029542834e-05
208 0.005484612658619881 0.05 3.927400030079298e-05
209 0.005429077427834272 0.05 3.848267806461081e-05
210 0.005372951738536358 0.05 3.769112299778499e-05
211 0.005314147099852562 0.05 3.687061325763352e-05
212 0.005260044708848 0.05 3.61236889148131e-05
213 0.005204734858125448 0.05 3.5368000681046396e-05
214 0.005151467397809029 0.05 3.464776091277599e-05
215 0.005099337548017502 0.05 3.395007661310956e-05
216 0.0050474232994019985 0.05 3.32623312715441e-05
217 0.004993983078747988 0.05 3.256172203691676e-05
218 0.004939394071698189 0.05 3.185374953318387e-05
219 0.0048909615725278854 0.05 3.1232135370373726e-05
220 0.004844331182539463 0.05 3.063943950110115e-05
221 0.004794823471456766 0.05 3.0016388336662203e-05
222 0.004743717145174742 0.05 2.9379931220319122e-05
223 0.004697603639215231 0.05 2.8811507945647463e-05
224 0.004650114104151726 0.05 2.8231923351995647e-05
225 0.004608130548149347 0.05 2.772443986032158e-05
226 0.0045545026659965515 0.05 2.7082896849606186e-05
227 0.004510394763201475 0.05 2.6560872356640175e-05
228 0.00446220813319087 0.05 2.5996381737058982e-05
229 0.004423307720571756 0.05 2.5545094104018062e-05
230 0.004379166290163994 0.05 2.5037794330273755e-05
231 0.004333867691457272 0.05 2.4522489184164442e-05
232 0.004291169811040163 0.05 2.4041666620178148e-05
233 0.0042549017816782 0.05 2.3636997866560705e-05
234 0.00421061459928751 0.05 2.3147502361098304e-05
235 0.004165521822869778 0.05 2.2654370695818216e-05
236 0.004127152729779482 0.05 2.2238951714825816e-05
237 0.004082176368683577 0.05 2.1756883143098094e-05
238 0.004045759327709675 0.05 2.137043520633597e-05
239 0.004008581396192312 0.05 2.0979474356863648e-05
240 0.0039690337143838406 0.05 2.0567562387441285e-05
241 0.003928115125745535 0.05 2.0145664166193455e-05
242 0.00389339798130095 0.05 1.9791141312452964e-05
243 0.0038538810331374407 0.05 1.9391431123949587e-05
244 0.0038145361468195915 0.05 1.8997508959728293e-05
245 0.003783704712986946 0.05 1.8691651348490268e-05
246 0.00374522409401834 0.05 1.8313392502022907e-05
247 0.0037102787755429745 0.05 1.797323966457043e-05
248 0.0036733567249029875 0.05 1.7617303456063382e-05
249 0.0036374537739902735 0.05 1.7274607671424747e-05
250 0.003605048870667815 0.05 1.6968186173471622e-05
251 0.003568869549781084 0.05 1.6629322999506257e-05
252 0.0035356006119400263 0.05 1.63207296282053e-05
253 0.003500965191051364 0.05 1.6002535630832426e-05
254 0.003481012536212802 0.05 1.5820653061382473e-05
255 0.0034379814751446247 0.05 1.5431931387865916e-05
256 0.0034053099807351828 0.05 1.5140025425353087e-05
257 0.0033764438703656197 0.05 1.4884433767292649e-05
258 0.00334155117161572 0.05 1.4578386981156655e-05
259 0.003309117630124092 0.05 1.4296760127763264e-05
260 0.003280052449554205 0.05 1.404671638738364e-05
261 0.003250318579375744 0.05 1.3793201105727348e-05
262 0.003219553269445896 0.05 1.3533322999137454e-05
263 0.0031883548945188522 0.05 1.3272310752654448e-05
264 0.003158302279189229 0.05 1.3023287465330213e-05
265 0.0031315903179347515 0.05 1.2803924619220197e-05
266 0.0031002650503069162 0.05 1.2549051461974159e-05
267 0.0030721118673682213 0.05 1.2322172551648691e-05
268 0.0030459125991910696 0.05 1.211289782077074e-05
269 0.0030162192415446043 0.05 1.1877883480337914e-05
270 0.002996062161400914 0.05 1.1719655958586372e-05
271 0.002964134095236659 0.05 1.1471201105450746e-05
272 0.0029398566111922264 0.05 1.1284062566119246e-05
273 0.0029147593304514885 0.05 1.1092223758168984e-05
274 0.0028843912295997143 0.05 1.0862292583624367e-05
275 0.0028578897472471 0.05 1.0663607099559158e-05
276 0.0028361158911138773 0.05 1.0501737961021718e-05
277 0.0028065787628293037 0.05 1.0284133168170229e-05
278 0.0027817748486995697 0.05 1.0103158274432644e-05
279 0.002760370494797826 0.05 9.948280421667732e-06
280 0.00273191649466753 0.05 9.74424256128259e-06
281 0.0027122781611979008 0.05 9.604653314454481e-06
282 0.002683464903384447 0.05 9.401671377418097e-06
283 0.0026635583490133286 0.05 9.262701496481895e-06
284 0.002636625897139311 0.05 9.07632966118399e-06
285 0.002613253891468048 0.05 8.916131264413707e-06
286 0.00258997967466712 0.05 8.758020157983992e-06
287 0.0025682663545012474 0.05 8.611788871348836e-06
288 0.002548751886934042 0.05 8.481416443828493e-06
289 0.002522361231967807 0.05 8.306686140713282e-06
290 0.0025001124013215303 0.05 8.160792276612483e-06
291 0.0024868955370038748 0.05 8.074735887930728e-06
292 0.0024621987249702215 0.05 7.91515594755765e-06
293 0.0024390164762735367 0.05 7.766810995235574e-06
294 0.0024153057020157576 0.05 7.6165351856616326e-06
295 0.002397840144112706 0.05 7.506781003030483e-06
296 0.002374081639572978 0.05 7.358757557085482e-06
297 0.0023529380559921265 0.05 7.22826689525391e-06
298 0.0023335530422627926 0.05 7.109655598469544e-06
299 0.002315774792805314 0.05 7.001738595135976e-06
300 0.0022954416926950216 0.05 6.8793247010034975e-06
301 0.002274745609611273 0.05 6.7558326009020675e-06
302 0.002257500309497118 0.05 6.653786840615794e-06
303 0.0022353515960276127 0.05 6.523864158225479e-06
304 0.002219886751845479 0.05 6.433908311009873e-06
305 0.0021999150048941374 0.05 6.3186603256326634e-06
306 0.0021880012936890125 0.05 6.250408205232816e-06
307 0.002164551755413413 0.05 6.117149496276397e-06
308 0.0021461318247020245 0.05 6.013482561684214e-06
309 0.0021251672878861427 0.05 5.896570655750111e-06
310 0.0021089937072247267 0.05 5.807159141113516e-06
311 0.002088510198518634 0.05 5.6949038480524905e-06
312 0.0020737156737595797 0.05 5.614506790152518e-06
313 0.0020565097220242023 0.05 5.521725142898504e-06
314 0.002038331003859639 0.05 5.424536084319698e-06
315 0.0020211145747452974 0.05 5.333288754627574e-06
316 0.002010734286159277 0.05 5.2786472224397585e-06
317 0.0019861229229718447 0.05 5.150217020855052e-06
318 0.001972818747162819 0.05 5.081448762211949e-06
319 0.001954932464286685 0.05 4.9897266762855e-06
320 0.0019401072058826685 0.05 4.914333658234682e-06
321 0.0019225297728553414 0.05 4.825689302379033e-06
322 0.0019072986906394362 0.05 4.74952958029462e-06
323 0.0018916450208052993 0.05 4.6718896555830725e-06
324 0.0018763128900900483 0.05 4.596462531480938e-06
325 0.0018654873128980398 0.05 4.543575869320193e-06
326 0.0018453947268426418 0.05 4.446228103915928e-06
327 0.0018316017230972648 0.05 4.38001234215335e-06
328 0.0018154662102460861 0.05 4.303180503484327e-06
329 0.001799696939997375 0.05 4.2287492760806344e-06
330 0.001788230729289353 0.05 4.175037247478031e-06
331 0.0017731206025928259 0.05 4.104779236513423e-06
332 0.0017584541346877813 0.05 4.037154212710448e-06
