
  0%|                                                                                                                                                                                                                                                                                            | 0/10 [00:00<?, ?it/s]
0, 0.1364392638206482
1, 0.1364392638206482
2, 0.12979251146316528
3, 0.1169482097029686
4, 0.09893610328435898
5, 0.07756032049655914
6, 0.05549614876508713
7, 0.038769595324993134
8, 0.027033716440200806
9, 0.019469670951366425
10, 0.015015197917819023
11, 0.012622582726180553
12, 0.011442038230597973
13, 0.010876133106648922
14, 0.010551231913268566
15, 0.010257871821522713
16, 0.009892589412629604
17, 0.009423389099538326
18, 0.008859739638864994
19, 0.00823107361793518
20, 0.00757087767124176
21, 0.00691286800429225
22, 0.0062874904833734035
23, 0.005722144152969122
24, 0.005231269635260105
25, 0.004819389432668686
26, 0.004483863711357117
27, 0.004216277506202459
28, 0.004004353191703558
29, 0.0038336757570505142
30, 0.003688595723360777
31, 0.003556151408702135
32, 0.003426317824050784
33, 0.0032917852513492107
34, 0.0031488812528550625
35, 0.002997047733515501
36, 0.002837827429175377
37, 0.0026740203611552715
38, 0.0025094200391322374
39, 0.0023484525736421347
40, 0.0021945859771221876
41, 0.0020512037444859743
42, 0.0019201611867174506
43, 0.0018026334000751376
44, 0.0016986433183774352
45, 0.0016072099097073078
46, 0.0015270396834239364
47, 0.0014561207499355078
48, 0.0013926121173426509
49, 0.0013346141204237938
50, 0.0012805531732738018
51, 0.0012294385815039277
52, 0.001180616789497435
53, 0.0011339408811181784
54, 0.0010893498547375202
55, 0.0010469149565324187
56, 0.0010069258278235793
57, 0.0009695844491943717
58, 0.0009349038591608405
59, 0.0009028089116327465
60, 0.000873034237883985
61, 0.0008452347829006612
62, 0.0008191947708837688
63, 0.0007946072146296501
64, 0.000771235441789031
65, 0.0007488690316677094
66, 0.0007273751543834805
67, 0.000706771039403975
68, 0.0006870281649753451
69, 0.0006682308157905936
70, 0.0006505035562440753
71, 0.0006337962695397437
72, 0.0006182119250297546
73, 0.0006036479026079178
74, 0.0005901171243749559
75, 0.0005774745950475335
76, 0.0005656529683619738
77, 0.0005545712192542851
78, 0.0005440634558908641
79, 0.0005341478972695768
80, 0.0005246546934358776
81, 0.0005156085244379938
82, 0.0005069320322945714
83, 0.0004986318526789546
84, 0.0004906858084723353
85, 0.00048309745034202933
86, 0.0004758417489938438
87, 0.0004689078778028488
88, 0.00046228253631852567
89, 0.00045594930998049676
90, 0.0004498732159845531
91, 0.0004440327174961567
92, 0.000438436574768275
93, 0.00043307169107720256
94, 0.00042790244333446026
95, 0.00042290508281439543
96, 0.0004180974792689085
97, 0.0004134305054321885
98, 0.00040891970274969935
99, 0.0004045500827487558
100, 0.0004003100038971752
101, 0.00039619856397621334
102, 0.00039221459883265197
103, 0.0003883365716319531
104, 0.0003845741448458284
105, 0.0003809371846728027
106, 0.0003773838689085096
107, 0.00037395927938632667
108, 0.0003706144343595952
109, 0.00036738673225045204
110, 0.0003642451483756304
111, 0.0003611879365053028
112, 0.0003582016215659678
113, 0.00035528017906472087
114, 0.00035243784077465534
115, 0.00034965667873620987
116, 0.00034695499925874174
117, 0.00034430791856721044
118, 0.00034171424340456724
119, 0.0003391922218725085
120, 0.0003367298631928861
121, 0.00033431616611778736
122, 0.0003319742972962558
123, 0.0003296703507658094
124, 0.0003274209739174694
125, 0.00032522721448913217
126, 0.00032307064975611866
127, 0.0003209579735994339
128, 0.00031890050740912557
129, 0.000316873483825475
130, 0.00031489599496126175
131, 0.0003129555261693895
132, 0.0003110482939518988
133, 0.00030918780248612165
134, 0.0003073576954193413
135, 0.0003055644629057497
136, 0.0003038123541045934
137, 0.00030208576936274767
138, 0.00030040170531719923
139, 0.0002987537591252476
140, 0.0002971271169371903
141, 0.0002955353120341897
142, 0.0002939770929515362
143, 0.0002924499858636409
144, 0.0002909556496888399
145, 0.0002894822391681373
146, 0.00028803618624806404
147, 0.000286626978777349
148, 0.0002852444304153323
149, 0.0002838755608536303
150, 0.00028254883363842964
151, 0.0002812300226651132
152, 0.000279945379588753
153, 0.00027868669712916017
154, 0.0002774490276351571
155, 0.00027623758069239557
156, 0.00027504193712957203
157, 0.00027386407600715756
158, 0.0002727260289248079
159, 0.0002715956652536988
160, 0.0002704850339796394
161, 0.0002694063587114215
162, 0.0002683351922314614
163, 0.00026728748343884945
164, 0.00026626483304426074
165, 0.0002652628463692963
166, 0.0002642733743414283
167, 0.0002633023832459003
168, 0.0002623521722853184
169, 0.00026141811395063996
170, 0.00026050524320453405
171, 0.0002596036356408149
172, 0.0002587253402452916
173, 0.00025785749312490225
174, 0.00025700629339553416
175, 0.00025618282961659133
176, 0.0002553583472035825
177, 0.0002545596507843584
178, 0.0002537738182581961
179, 0.0002530045749153942
180, 0.00025224057026207447
181, 0.00025150534929707646
182, 0.0002507656463421881
183, 0.0002500455011613667
184, 0.0002493373758625239
185, 0.00024864746956154704
186, 0.0002479768299963325
187, 0.00024731081794016063
188, 0.00024664541706442833
189, 0.0002460116520524025
190, 0.0002453795459587127
191, 0.0002447672304697335
192, 0.00024416399537585676
193, 0.00024356375797651708
194, 0.00024298862263094634
195, 0.00024241195933427662
196, 0.00024185481015592813
197, 0.00024130420933943242
198, 0.00024076859699562192
199, 0.00024024664890021086
200, 0.00023972365306690335
201, 0.00023921902175061405
202, 0.000238721608184278
203, 0.00023823752417229116
204, 0.0002377518976572901
205, 0.00023728595988359302
206, 0.00023683618928771466
207, 0.00023639085702598095
208, 0.0002359511418035254
209, 0.00023551727645099163
210, 0.00023510123719461262
211, 0.00023468953440897167
212, 0.000234279315918684
213, 0.0002338881604373455
214, 0.00023350106494035572
215, 0.00023312887060455978
216, 0.00023276064894162118
217, 0.00023239536676555872
218, 0.00023204568424262106
219, 0.00023169703490566462
220, 0.00023136366507969797
221, 0.00023103825515136123
222, 0.00023071488249115646
223, 0.00023040657106321305
224, 0.00023009543656371534
225, 0.00022978702327236533
226, 0.00022949904086999595
227, 0.00022920939954929054
228, 0.0002289347758051008
229, 0.0002286615635966882
230, 0.00022839743178337812
231, 0.00022813188843429089
232, 0.000227885611820966
233, 0.00022764247842133045
234, 0.00022740561689715832
235, 0.0002271664998261258
236, 0.00022694630024489015
237, 0.00022672646446153522
238, 0.00022650840401183814
239, 0.0002263026253785938
240, 0.00022609959705732763
241, 0.00022589912987314165
242, 0.00022571141016669571
243, 0.00022553312010131776
244, 0.0002253495331387967
245, 0.00022517424076795578
246, 0.00022500351769849658
247, 0.00022484756482299417
248, 0.00022468832321465015
249, 0.0002245441428385675
250, 0.00022439990425482392
251, 0.0002242631744593382
252, 0.00022412299585994333
253, 0.00022400004672817886
254, 0.00022387818899005651
255, 0.00022376046399585903
256, 0.00022364761389326304
257, 0.00022353706299327314
258, 0.00022343252203427255
259, 0.00022333853121381253
260, 0.00022324119345284998
261, 0.00022315180103760213
262, 0.00022306700702756643
263, 0.00022298668045550585
264, 0.00022290748893283308
265, 0.00022283503494691104
266, 0.00022276064555626363
267, 0.00022269817418418825
268, 0.00022264337167143822
269, 0.00022257835371419787
270, 0.00022252567578107119
271, 0.00022247538436204195
272, 0.00022242884733714163
273, 0.00022238033125177026
274, 0.00022234045900404453
275, 0.00022230249305721372
276, 0.00022226606961339712
277, 0.00022223155247047544
278, 0.00022219866514205933
279, 0.00022217589139472693
280, 0.00022214667114894837
281, 0.00022212152543943375
282, 0.00022209755843505263
283, 0.00022207709844224155
284, 0.00022206128051038831
285, 0.0002220456226496026
286, 0.00022203358821570873
287, 0.0002220205933554098
288, 0.00022201152751222253
289, 0.00022200355306267738
290, 0.00022199618979357183
291, 0.00022198492661118507
292, 0.00022198163787834346
293, 0.00022197968792170286
294, 0.00022197839280124754
295, 0.0002219748275820166
296, 0.0002219759626314044
297, 0.00022196618374437094
298, 0.0002219734014943242
299, 0.00022197239741217345
0 2.5136959552764893 0.05 7.823101997375488
1 2.3575081825256348 0.05 6.881131172180176
2 2.192796230316162 0.05 5.953194618225098
3 1.9881377220153809 0.05 4.893801689147949
4 1.7110333442687988 0.05 3.624685764312744
5 1.3076552152633667 0.05 2.117093086242676
6 0.868578314781189 0.05 0.9340527653694153
7 0.6057801246643066 0.05 0.4543426036834717
8 0.4975139796733856 0.05 0.30645307898521423
9 0.4130629897117615 0.05 0.21124480664730072
10 0.3526390790939331 0.05 0.15396226942539215
11 0.3075191378593445 0.05 0.1170840710401535
12 0.2723568081855774 0.05 0.09183959662914276
13 0.2445097416639328 0.05 0.0740194320678711
14 0.22217023372650146 0.05 0.06111181527376175
15 0.20404401421546936 0.05 0.05154673382639885
16 0.1890944391489029 0.05 0.04427015036344528
17 0.17656585574150085 0.05 0.038598183542490005
18 0.16589801013469696 0.05 0.034074995666742325
19 0.15666086971759796 0.05 0.030386067926883698
20 0.14856012165546417 0.05 0.027324866503477097
21 0.14135482907295227 0.05 0.024738583713769913
22 0.13487672805786133 0.05 0.022523067891597748
23 0.1290111243724823 0.05 0.020606670528650284
24 0.1236523687839508 0.05 0.018930338323116302
25 0.11873704940080643 0.05 0.017455246299505234
26 0.11419741064310074 0.05 0.016146037727594376
27 0.10999990254640579 0.05 0.014980906620621681
28 0.10610076040029526 0.05 0.013937676325440407
29 0.10247213393449783 0.05 0.01300064753741026
30 0.09906916320323944 0.05 0.012151515111327171
31 0.09588122367858887 0.05 0.011382053606212139
32 0.09287689626216888 0.05 0.010679940693080425
33 0.09005380421876907 0.05 0.010040552355349064
34 0.08738025277853012 0.05 0.009453225880861282
35 0.08484311401844025 0.05 0.008912235498428345
36 0.08244144916534424 0.05 0.008414817973971367
37 0.08014926314353943 0.05 0.007953394204378128
38 0.07797065377235413 0.05 0.007526893634349108
39 0.0758904442191124 0.05 0.007130626123398542
40 0.07389818131923676 0.05 0.0067611560225486755
41 0.07199060916900635 0.05 0.006416603457182646
42 0.0701608806848526 0.05 0.006094575859606266
43 0.06841101497411728 0.05 0.005794360302388668
44 0.06672584265470505 0.05 0.005512411706149578
45 0.06510483473539352 0.05 0.0052478318102657795
46 0.06354480236768723 0.05 0.004999348893761635
47 0.062039054930210114 0.05 0.004765229299664497
48 0.060590144246816635 0.05 0.004545245785266161
49 0.05919046327471733 0.05 0.0043376749381423
50 0.05784231051802635 0.05 0.00414233049377799
51 0.05654485523700714 0.05 0.003958581946790218
52 0.05527126044034958 0.05 0.0037822669837623835
53 0.054061733186244965 0.05 0.0036185402423143387
54 0.05287078768014908 0.05 0.003460868261754513
55 0.05173119902610779 0.05 0.00331328297033906
56 0.05062102898955345 0.05 0.003172600409016013
57 0.049548231065273285 0.05 0.003039553062990308
58 0.04850215092301369 0.05 0.00291256420314312
59 0.047493256628513336 0.05 0.0027926552575081587
60 0.04651045799255371 0.05 0.002678272081539035
61 0.04556087404489517 0.05 0.002570026321336627
62 0.04463706538081169 0.05 0.0024668611586093903
63 0.0437399186193943 0.05 0.0023686964996159077
64 0.04287073016166687 0.05 0.002275491366162896
65 0.042019642889499664 0.05 0.0021860403940081596
66 0.041196949779987335 0.05 0.0021012783981859684
67 0.04040016233921051 0.05 0.0020207827910780907
68 0.039613477885723114 0.05 0.001942850649356842
69 0.03885776922106743 0.05 0.0018694298341870308
70 0.038121093064546585 0.05 0.0017992195207625628
71 0.03739529475569725 0.05 0.0017313600983470678
72 0.03669993579387665 0.05 0.0016675699735060334
73 0.036019034683704376 0.05 0.0016062664799392223
74 0.03535190969705582 0.05 0.0015473166713491082
75 0.03470783308148384 0.05 0.0014914491912350059
76 0.03407497704029083 0.05 0.001437555649317801
77 0.03345779702067375 0.05 0.0013859518803656101
78 0.03286324441432953 0.05 0.0013371323002502322
79 0.032273344695568085 0.05 0.0012895595282316208
80 0.031702566891908646 0.05 0.0012443491723388433
81 0.031149812042713165 0.05 0.0012013355735689402
82 0.030606936663389206 0.05 0.0011598268756642938
83 0.030075762420892715 0.05 0.001119919354096055
84 0.02955820970237255 0.05 0.0010817073052749038
85 0.029051054269075394 0.05 0.0010449059773236513
86 0.028560210019350052 0.05 0.0010098950006067753
87 0.02807801216840744 0.05 0.0009760817629285157
88 0.027604246512055397 0.05 0.0009434203384444118
89 0.027145570144057274 0.05 0.000912328832782805
90 0.026695014908909798 0.05 0.0008822949603199959
91 0.026257982477545738 0.05 0.0008536428795196116
92 0.025825243443250656 0.05 0.0008257380686700344
93 0.025406725704669952 0.05 0.0007991914171725512
94 0.024995045736432076 0.05 0.0007735018152743578
95 0.024596378207206726 0.05 0.0007490240968763828
96 0.024199338629841805 0.05 0.0007250374765135348
97 0.02381802536547184 0.05 0.000702368444763124
98 0.02343912608921528 0.05 0.0006801994750276208
99 0.023070553317666054 0.05 0.0006589758559130132
100 0.02271083928644657 0.05 0.0006385866436176002
101 0.022357812151312828 0.05 0.0006188880070112646
102 0.022011036053299904 0.05 0.0005998386768624187
103 0.021671881899237633 0.05 0.0005814960459247231
104 0.021342022344470024 0.05 0.0005639292066916823
105 0.021019455045461655 0.05 0.0005470113828778267
106 0.020700067281723022 0.05 0.0005305141676217318
107 0.02038692496716976 0.05 0.0005145847098901868
108 0.02008111961185932 0.05 0.0004992629401385784
109 0.0197849553078413 0.05 0.00048464490100741386
110 0.019490286707878113 0.05 0.0004703161248471588
111 0.019200915470719337 0.05 0.000456454319646582
112 0.018921229988336563 0.05 0.0004432534915395081
113 0.018643485382199287 0.05 0.00043033601832576096
114 0.018374314531683922 0.05 0.00041799951577559114
115 0.01810893416404724 0.05 0.0004060123465023935
116 0.01784895732998848 0.05 0.0003944383352063596
117 0.01759191043674946 0.05 0.00038315937854349613
118 0.017341148108243942 0.05 0.0003723138361237943
119 0.017098475247621536 0.05 0.00036196637665852904
120 0.016854293644428253 0.05 0.00035170180490240455
121 0.01661737449467182 0.05 0.0003418835694901645
122 0.016384484246373177 0.05 0.0003323678392916918
123 0.01615898869931698 0.05 0.00032328220549970865
124 0.015932222828269005 0.05 0.0003142723289784044
125 0.015714159235358238 0.05 0.000305728375678882
126 0.01550156157463789 0.05 0.00029751192778348923
127 0.015288696624338627 0.05 0.00028939725598320365
128 0.01507851853966713 0.05 0.00028149510035291314
129 0.014876971952617168 0.05 0.0002740201889537275
130 0.014677930623292923 0.05 0.0002667369262780994
131 0.014479974284768105 0.05 0.0002595906553324312
132 0.014285453595221043 0.05 0.0002526629250496626
133 0.01409427635371685 0.05 0.0002459455863572657
134 0.01390934269875288 0.05 0.00023953375057317317
135 0.013726762495934963 0.05 0.00023328655515797436
136 0.013544110581278801 0.05 0.0002271195116918534
137 0.013368252664804459 0.05 0.00022125992109067738
138 0.013193457387387753 0.05 0.00021551160898525268
139 0.01302335225045681 0.05 0.00020999019034206867
140 0.012852891348302364 0.05 0.00020452908938750625
141 0.012692066840827465 0.05 0.00019944272935390472
142 0.012528695166110992 0.05 0.0001943413371918723
143 0.012363752350211143 0.05 0.00018925790209323168
144 0.012208076193928719 0.05 0.00018452190852258354
145 0.012055747210979462 0.05 0.00017994578229263425
146 0.011902310885488987 0.05 0.00017539453983772546
147 0.011755852028727531 0.05 0.00017110459157265723
148 0.011608022265136242 0.05 0.0001668283948674798
149 0.011461803689599037 0.05 0.00016265199519693851
150 0.011320795863866806 0.05 0.00015867457841522992
151 0.011179731227457523 0.05 0.00015474483370780945
152 0.011043296195566654 0.05 0.00015099096344783902
153 0.010907058604061604 0.05 0.00014728846144862473
154 0.010770775377750397 0.05 0.00014363073569256812
155 0.010644439607858658 0.05 0.00014028107398189604
156 0.010513667948544025 0.05 0.0001368554076179862
157 0.010383417829871178 0.05 0.00013348550419323146
158 0.010260858573019505 0.05 0.00013035297160968184
159 0.010137186385691166 0.05 0.00012722965038847178
160 0.010019629262387753 0.05 0.00012429588241502643
161 0.009899124503135681 0.05 0.00012132407573517412
162 0.009782576002180576 0.05 0.0001184840511996299
163 0.009666628204286098 0.05 0.0001156920479843393
164 0.00955298263579607 0.05 0.0001129877709900029
165 0.009443746879696846 0.05 0.00011041857942473143
166 0.009331039153039455 0.05 0.00010779870353871956
167 0.009218687191605568 0.05 0.00010521840158617124
168 0.009114138782024384 0.05 0.00010284535528626293
169 0.00900675356388092 0.05 0.00010043614020105451
170 0.00890587829053402 0.05 9.819897240959108e-05
171 0.008800678886473179 0.05 9.589275578036904e-05
172 0.008702156133949757 0.05 9.375776426168159e-05
173 0.008601468056440353 0.05 9.160066838376224e-05
174 0.008505620062351227 0.05 8.957057434599847e-05
175 0.008407657034695148 0.05 8.751921996008605e-05
176 0.008315534330904484 0.05 8.561184222344309e-05
177 0.008221014402806759 0.05 8.367665577679873e-05
178 0.008131468668580055 0.05 8.186370541807264e-05
179 0.008037937805056572 0.05 7.999130320968106e-05
180 0.00794960930943489 0.05 7.824291969882324e-05
181 0.007858873344957829 0.05 7.646698941243812e-05
182 0.007770780939608812 0.05 7.476232713088393e-05
183 0.007689559366554022 0.05 7.320762961171567e-05
184 0.007602100260555744 0.05 7.155181810958311e-05
185 0.0075214640237390995 0.05 7.004195504123345e-05
186 0.0074385711923241615 0.05 6.850661884527653e-05
187 0.007357235997915268 0.05 6.701667734887451e-05
188 0.007275499869138002 0.05 6.553588900715113e-05
189 0.0071968273259699345 0.05 6.412621587514877e-05
190 0.007121037691831589 0.05 6.27827103016898e-05
191 0.0070436690002679825 0.05 6.142587517388165e-05
192 0.006968158762902021 0.05 6.011592267896049e-05
193 0.0068947491236031055 0.05 5.8855956012848765e-05
194 0.006819950882345438 0.05 5.758586848969571e-05
195 0.006746512837707996 0.05 5.6352364481426775e-05
196 0.006676961202174425 0.05 5.51964549231343e-05
197 0.00660626869648695 0.05 5.403385148383677e-05
198 0.006535727065056562 0.05 5.288606553222053e-05
199 0.006469369400292635 0.05 5.181760934647173e-05
200 0.006398278754204512 0.05 5.068504106020555e-05
201 0.006332531571388245 0.05 4.964873369317502e-05
202 0.006265651900321245 0.05 4.860556509811431e-05
203 0.006200868636369705 0.05 4.7605652071069926e-05
204 0.006137462332844734 0.05 4.66370620415546e-05
205 0.006075371988117695 0.05 4.569821248878725e-05
206 0.0060109528712928295 0.05 4.473423905437812e-05
207 0.005951426923274994 0.05 4.3852625822182745e-05
208 0.005892013665288687 0.05 4.298143903724849e-05
209 0.00582869490608573 0.05 4.206260564387776e-05
210 0.005771052557975054 0.05 4.1234765376430005e-05
211 0.0057139466516673565 0.05 4.042274667881429e-05
212 0.005656185559928417 0.05 3.960962931159884e-05
213 0.005607598926872015 0.05 3.89320521207992e-05
214 0.005542305763810873 0.05 3.8030706491554156e-05
215 0.005484685301780701 0.05 3.724404814420268e-05
216 0.00543303182348609 0.05 3.6545839975588024e-05
217 0.005378433968871832 0.05 3.5815013688988984e-05
218 0.005324753001332283 0.05 3.5103661502944306e-05
219 0.00527231814339757 0.05 3.441570152062923e-05
220 0.005222849547863007 0.05 3.377290704520419e-05
221 0.005165620241314173 0.05 3.3036834793165326e-05
222 0.0051149483770132065 0.05 3.239186480641365e-05
223 0.0050666010938584805 0.05 3.178241604473442e-05
224 0.005015984643250704 0.05 3.11505573336035e-05
225 0.004967438988387585 0.05 3.055051638511941e-05
226 0.004920111037790775 0.05 2.9971142794238403e-05
227 0.004872302059084177 0.05 2.939150908787269e-05
