
  0%|                                                                                                                                                                                                                                                                                                           | 0/10 [00:00<?, ?it/s]
0, 0.1364392638206482
1, 0.1364392638206482
2, 0.12979254126548767
3, 0.11694802343845367
4, 0.09893624484539032
5, 0.07756035774946213
6, 0.055496156215667725
7, 0.03877317160367966
8, 0.027045417577028275
9, 0.019489750266075134
10, 0.015038213692605495
11, 0.01264058705419302
12, 0.011447626166045666
13, 0.010865206830203533
14, 0.010523764416575432
15, 0.010215537622570992
16, 0.009841371327638626
17, 0.009367119520902634
18, 0.008805165067315102
19, 0.008180932141840458
20, 0.007529790513217449
21, 0.0068802498281002045
22, 0.006261873058974743
23, 0.005697116255760193
24, 0.0052011096850037575
25, 0.004777939990162849
26, 0.004425382241606712
27, 0.004136751405894756
28, 0.0039020783733576536
29, 0.0037089118268340826
30, 0.003545269835740328
31, 0.0034008033107966185
32, 0.0032659266144037247
33, 0.0031345984898507595
34, 0.003003000048920512
35, 0.002868858864530921
36, 0.0027321483939886093
37, 0.002593464683741331
38, 0.002454828005284071
39, 0.002318216720595956
40, 0.0021859360858798027
41, 0.00205983966588974
42, 0.0019417190924286842
43, 0.0018323560943827033
44, 0.0017320950282737613
45, 0.0016413535922765732
46, 0.0015595158329233527
47, 0.0014860425144433975
48, 0.0014202509773895144
49, 0.0013612199109047651
50, 0.0013079640921205282
51, 0.0012596629094332457
52, 0.0012156201992183924
53, 0.0011752466671168804
54, 0.0011379197239875793
55, 0.0011033748742192984
56, 0.0010713123483583331
57, 0.0010414158459752798
58, 0.0010135858319699764
59, 0.0009876913391053677
60, 0.0009635725291445851
61, 0.0009412660147063434
62, 0.0009204752277582884
63, 0.0009013133822008967
64, 0.0008836006745696068
65, 0.0008672680123709142
66, 0.0008522292482666671
67, 0.0008383248932659626
68, 0.0008255982538685203
69, 0.000813841528724879
70, 0.000803102389909327
71, 0.0007932380540296435
72, 0.0007841399637982249
73, 0.0007758383871987462
74, 0.0007682476425543427
75, 0.0007613061461597681
76, 0.0007549080764874816
77, 0.0007491269498132169
78, 0.0007438482134602964
79, 0.0007390663377009332
80, 0.0007347326609306037
81, 0.0007308241911232471
82, 0.0007273325463756919
83, 0.0007242296705953777
84, 0.0007214474026113749
85, 0.0007189461030066013
86, 0.0007168457377701998
87, 0.0007149628363549709
88, 0.000713338318746537
89, 0.0007119886577129364
90, 0.0007108516874723136
91, 0.0007098870119079947
92, 0.0007091043516993523
93, 0.0007084900280460715
94, 0.000708018138539046
95, 0.0007076757028698921
96, 0.0007074247114360332
97, 0.0007072768057696521
98, 0.0007071688305586576
99, 0.0007071475265547633
0 2.419104814529419 0.05 7.640531063079834
1 2.2590525150299072 0.05 6.662954330444336
2 2.0915794372558594 0.05 5.711668014526367
3 1.8938108682632446 0.05 4.6826043128967285
4 1.614107370376587 0.05 3.4015674591064453
5 1.2362338304519653 0.05 1.9953335523605347
6 0.8045605421066284 0.05 0.8451458811759949
7 0.5749088525772095 0.05 0.43153125047683716
8 0.47209036350250244 0.05 0.29098087549209595
9 0.39230790734291077 0.05 0.20094090700149536
10 0.3378230333328247 0.05 0.14900222420692444
11 0.29668253660202026 0.05 0.11492069065570831
12 0.26517394185066223 0.05 0.09180700778961182
13 0.24007558822631836 0.05 0.07525064051151276
14 0.2195509374141693 0.05 0.06293392181396484
15 0.2026335746049881 0.05 0.05360891669988632
16 0.18851742148399353 0.05 0.04639992117881775
17 0.17652533948421478 0.05 0.04068443924188614
18 0.16618406772613525 0.05 0.03605728596448898
19 0.15712153911590576 0.05 0.032231882214546204
20 0.1490602344274521 0.05 0.02900933474302292
21 0.14183345437049866 0.05 0.026264648884534836
22 0.13528560101985931 0.05 0.023895569145679474
23 0.12931253015995026 0.05 0.021832097321748734
24 0.12385162711143494 0.05 0.020027082413434982
25 0.11884342133998871 0.05 0.018440155312418938
26 0.1142178550362587 0.05 0.017032649368047714
27 0.10993929207324982 0.05 0.015780474990606308
28 0.10597620904445648 0.05 0.014663273468613625
29 0.1022866740822792 0.05 0.013660051859915257
30 0.09884099662303925 0.05 0.01275523379445076
31 0.09561444073915482 0.05 0.011936066672205925
32 0.0925925001502037 0.05 0.01119349803775549
33 0.08974237740039825 0.05 0.01051500253379345
34 0.08704804629087448 0.05 0.009893097914755344
35 0.08449932187795639 0.05 0.00932224839925766
36 0.08207611739635468 0.05 0.008795241825282574
37 0.07977603375911713 0.05 0.0083091976121068
38 0.07757917791604996 0.05 0.00785786472260952
39 0.07548884302377701 0.05 0.007440116256475449
40 0.07348598539829254 0.05 0.007050554733723402
41 0.07156649976968765 0.05 0.006687037646770477
42 0.06973125040531158 0.05 0.006348470691591501
43 0.06796225905418396 0.05 0.006030452437698841
44 0.06626234948635101 0.05 0.005732550285756588
45 0.06462779641151428 0.05 0.0054532187059521675
46 0.06305832415819168 0.05 0.00519157387316227
47 0.061535999178886414 0.05 0.004943934269249439
48 0.06007084250450134 0.05 0.004711309913545847
49 0.058663174510002136 0.05 0.0044930921867489815
50 0.05729416385293007 0.05 0.0042858305387198925
51 0.055973079055547714 0.05 0.004090464673936367
52 0.05469439551234245 0.05 0.0039057093672454357
53 0.05345531180500984 0.05 0.003730748314410448
54 0.05226081982254982 0.05 0.0035658793058246374
55 0.05109787732362747 0.05 0.0034089446999132633
56 0.0499715618789196 0.05 0.0032603186555206776
57 0.04888847470283508 0.05 0.003120522014796734
58 0.04782922938466072 0.05 0.002986764535307884
59 0.04680130258202553 0.05 0.0028597633354365826
60 0.045807935297489166 0.05 0.002739653456956148
61 0.044840820133686066 0.05 0.0026251929812133312
62 0.04389984905719757 0.05 0.0025161714293062687
63 0.04299488291144371 0.05 0.002413502661511302
64 0.042105190455913544 0.05 0.002314650919288397
65 0.04124477505683899 0.05 0.002221018075942993
66 0.040407873690128326 0.05 0.002131799003109336
67 0.039595142006874084 0.05 0.002046906854957342
68 0.03880232200026512 0.05 0.0019657560624182224
69 0.0380295068025589 0.05 0.0018882331205531955
70 0.037285540252923965 0.05 0.0018150773830711842
71 0.03655509650707245 0.05 0.001744657289236784
72 0.035848189145326614 0.05 0.0016778330318629742
73 0.03515854850411415 0.05 0.0016138982027769089
74 0.03448545187711716 0.05 0.0015526947099715471
75 0.033830538392066956 0.05 0.001494280295446515
76 0.033192045986652374 0.05 0.001438408624380827
77 0.03257060423493385 0.05 0.0013850510586053133
78 0.03196511045098305 0.05 0.0013340332079678774
79 0.03137826547026634 0.05 0.0012855001259595156
80 0.030803034082055092 0.05 0.0012388001196086407
81 0.03023974411189556 0.05 0.0011939069954678416
82 0.029695019125938416 0.05 0.0011512814089655876
83 0.029162511229515076 0.05 0.0011103604920208454
84 0.02864145115017891 0.05 0.001071036560460925
85 0.028133925050497055 0.05 0.0010334153193980455
86 0.027638250961899757 0.05 0.0009973217966035008
87 0.02715573087334633 0.05 0.0009628024417907
88 0.02668117918074131 0.05 0.000929446192458272
89 0.02622385509312153 0.05 0.0008978573023341596
90 0.02577059715986252 0.05 0.0008670879760757089
91 0.02533491514623165 0.05 0.0008380176732316613
92 0.02490418031811714 0.05 0.000809764489531517
93 0.024484165012836456 0.05 0.0007826810469850898
94 0.024075770750641823 0.05 0.0007567886495962739
95 0.023678425699472427 0.05 0.0007320148288272321
96 0.023286374285817146 0.05 0.0007079750066623092
97 0.02290390618145466 0.05 0.0006849096389487386
98 0.02253003977239132 0.05 0.0006627322291024029
99 0.022164789959788322 0.05 0.0006414185627363622
100 0.021805893629789352 0.05 0.0006208147387951612
101 0.021459782496094704 0.05 0.0006012634257785976
102 0.02111559920012951 0.05 0.0005821314407512546
103 0.020780978724360466 0.05 0.0005638274014927447
104 0.02045334503054619 0.05 0.0005461889086291194
105 0.02013629861176014 0.05 0.000529387267306447
106 0.019822077825665474 0.05 0.000512994360178709
107 0.019512785598635674 0.05 0.0004971103044226766
108 0.01921609230339527 0.05 0.00048210809472948313
109 0.01891634427011013 0.05 0.00046718475641682744
110 0.018631990998983383 0.05 0.00045324466191232204
111 0.018348339945077896 0.05 0.00043954956345260143
112 0.018077028915286064 0.05 0.0004266466130502522
113 0.017803292721509933 0.05 0.0004138232907280326
114 0.017539195716381073 0.05 0.00040163693483918905
115 0.017276322469115257 0.05 0.0003896877751685679
116 0.01702256314456463 0.05 0.0003783241845667362
117 0.016777006909251213 0.05 0.000367487984476611
118 0.016532782465219498 0.05 0.00035686674527823925
119 0.016289174556732178 0.05 0.0003464275214355439
120 0.01605638675391674 0.05 0.000336596742272377
121 0.015824757516384125 0.05 0.0003269552835263312
122 0.015598736703395844 0.05 0.000317682366585359
123 0.01537594385445118 0.05 0.00030867234454490244
124 0.015162141993641853 0.05 0.0003001479199156165
125 0.014948160387575626 0.05 0.00029173577786423266
126 0.014734848402440548 0.05 0.0002834689221344888
127 0.014528057537972927 0.05 0.00027556827990338206
128 0.014328787103295326 0.05 0.00026806065579876304
129 0.014130662195384502 0.05 0.00026069890009239316
130 0.013936434872448444 0.05 0.0002535815292503685
131 0.013744266703724861 0.05 0.00024663651129230857
132 0.013559767045080662 0.05 0.00024005936575122178
133 0.013372499495744705 0.05 0.00023347446403931826
134 0.01319283526390791 0.05 0.0002272429846925661
135 0.013014803640544415 0.05 0.0002211512764915824
136 0.012839718721807003 0.05 0.00021524113253690302
137 0.012668970972299576 0.05 0.00020955446234438568
138 0.012503473088145256 0.05 0.0002041152911260724
139 0.01233963668346405 0.05 0.00019880117906723171
140 0.01217648945748806 0.05 0.00019357909332029521
141 0.012017358094453812 0.05 0.0001885524543467909
142 0.011860883794724941 0.05 0.00018367425946053118
143 0.011703666299581528 0.05 0.00017883730470202863
144 0.01155147049576044 0.05 0.00017421628581359982
145 0.01140266377478838 0.05 0.00016975667676888406
146 0.011257191188633442 0.05 0.00016545284597668797
147 0.011114822700619698 0.05 0.00016129438881762326
148 0.010972974821925163 0.05 0.0001572037726873532
149 0.010829354636371136 0.05 0.0001531155576230958
150 0.010698605328798294 0.05 0.0001494405878474936
151 0.010560835711658001 0.05 0.0001456165628042072
152 0.010428022593259811 0.05 0.00014197707059793174
153 0.01029669027775526 0.05 0.0001384234055876732
154 0.010167877189815044 0.05 0.00013498167390935123
155 0.010047833435237408 0.05 0.00013181325630284846
156 0.009915012866258621 0.05 0.00012835144298151135
157 0.00980389304459095 0.05 0.00012549063831102103
158 0.009674801491200924 0.05 0.0001222076389240101
159 0.009559269063174725 0.05 0.00011930635810131207
160 0.00944033544510603 0.05 0.00011635608098004013
161 0.009327325969934464 0.05 0.00011358698247931898
162 0.009218702092766762 0.05 0.00011095676745753735
163 0.009108180180191994 0.05 0.0001083122260752134
164 0.008992710150778294 0.05 0.00010558335634414107
165 0.008893379010260105 0.05 0.0001032637374009937
166 0.008781354874372482 0.05 0.00010067861876450479
167 0.008675646036863327 0.05 9.826928726397455e-05
168 0.008578682318329811 0.05 9.608495747670531e-05
169 0.008477413095533848 0.05 9.382983262185007e-05
170 0.008372952230274677 0.05 9.153166320174932e-05
171 0.00828136969357729 0.05 8.954028453445062e-05
172 0.008179433643817902 0.05 8.734955918043852e-05
173 0.008089215494692326 0.05 8.543326111976057e-05
174 0.007991769351065159 0.05 8.338734915014356e-05
175 0.00789460726082325 0.05 8.137206168612465e-05
176 0.007803611923009157 0.05 7.950702274683863e-05
177 0.007717324886471033 0.05 7.77584791649133e-05
178 0.007627318613231182 0.05 7.595527858939022e-05
179 0.0075425016693770885 0.05 7.427540549542755e-05
180 0.007453355006873608 0.05 7.253001967910677e-05
181 0.00736975995823741 0.05 7.091219595167786e-05
182 0.007289834786206484 0.05 6.938243313925341e-05
183 0.007205628324300051 0.05 6.778880197089165e-05
184 0.0071260398253798485 0.05 6.629955896642059e-05
185 0.007043643854558468 0.05 6.477523129433393e-05
186 0.006969473324716091 0.05 6.341823609545827e-05
187 0.006887517869472504 0.05 6.193551234900951e-05
188 0.006808923557400703 0.05 6.0530059272423387e-05
189 0.0067370873875916 0.05 5.925957884755917e-05
190 0.006663339212536812 0.05 5.7969304180005565e-05
191 0.006593180354684591 0.05 5.6754994147922844e-05
192 0.006515164393931627 0.05 5.5419804994016886e-05
193 0.00644302275031805 0.05 5.4199288570089266e-05
194 0.006373415235430002 0.05 5.3034524171380326e-05
195 0.006302354391664267 0.05 5.185848567634821e-05
196 0.0062408726662397385 0.05 5.0851627747761086e-05
197 0.006168270017951727 0.05 4.9675356422085315e-05
198 0.0061062658205628395 0.05 4.868169344263151e-05
199 0.0060345749370753765 0.05 4.7545298002660275e-05
200 0.005968217737972736 0.05 4.650541814044118e-05
201 0.005912224296480417 0.05 4.5636887080036104e-05
202 0.005844342987984419 0.05 4.4594948121812195e-05
203 0.005783947184681892 0.05 4.367801011539996e-05
204 0.005726942326873541 0.05 4.2821295210160315e-05
205 0.00565987266600132 0.05 4.1824190702755004e-05
206 0.005603390745818615 0.05 4.099359648535028e-05
207 0.005545965861529112 0.05 4.0157676266971976e-05
208 0.005483201239258051 0.05 3.925387864001095e-05
209 0.005425082985311747 0.05 3.842616206384264e-05
210 0.005368618294596672 0.05 3.763043787330389e-05
211 0.005314802285283804 0.05 3.6879791878163815e-05
212 0.005259581375867128 0.05 3.611740976339206e-05
213 0.005202941130846739 0.05 3.534370625857264e-05
214 0.0051508150063455105 0.05 3.463905886746943e-05
215 0.005100664682686329 0.05 3.3967829949688166e-05
216 0.005044180434197187 0.05 3.3219679608009756e-05
217 0.0049918475560843945 0.05 3.253395334468223e-05
218 0.004943479783833027 0.05 3.190654388163239e-05
219 0.004888422787189484 0.05 3.119979373877868e-05
220 0.004841071553528309 0.05 3.059829759877175e-05
221 0.004793878644704819 0.05 3.000462857016828e-05
222 0.004751384258270264 0.05 2.9475049814209342e-05
223 0.004697587341070175 0.05 2.88113733404316e-05
224 0.004652698524296284 0.05 2.8263377316761762e-05
225 0.004603664390742779 0.05 2.7670788767863996e-05
226 0.004555928520858288 0.05 2.7099922590423375e-05
227 0.004509966354817152 0.05 2.655588832567446e-05
228 0.004471942316740751 0.05 2.610998308227863e-05
229 0.004424762446433306 0.05 2.556195977376774e-05
230 0.004377087112516165 0.05 2.5014083803398535e-05
231 0.004333068151026964 0.05 2.451349610055331e-05
232 0.0042918589897453785 0.05 2.4049451894825324e-05
233 0.004249061923474073 0.05 2.357221455895342e-05
234 0.0042091310024261475 0.05 2.3131251509767026e-05
235 0.004164549987763166 0.05 2.2643853299086913e-05
236 0.004132448695600033 0.05 2.229611163784284e-05
237 0.004083904903382063 0.05 2.1775365894427523e-05
238 0.0040433104149997234 0.05 2.134461647074204e-05
239 0.0040070372633636 0.05 2.0963363567716442e-05
240 0.003968748729676008 0.05 2.056465564237442e-05
241 0.0039290208369493484 0.05 2.0155004676780663e-05
242 0.0038887064438313246 0.05 1.9743520169868134e-05
243 0.003856898518279195 0.05 1.9421853721723892e-05
244 0.003815865144133568 0.05 1.901079303934239e-05
245 0.0037864234764128923 0.05 1.8718565115705132e-05
246 0.0037439074367284775 0.05 1.8300561350770295e-05
247 0.0037081302143633366 0.05 1.7952470443560742e-05
248 0.00367344100959599 0.05 1.7618152924114838e-05
249 0.0036406507715582848 0.05 1.730502481223084e-05
250 0.0036040404811501503 0.05 1.69587365235202e-05
251 0.0035667340271174908 0.05 1.6609463273198344e-05
252 0.003538522170856595 0.05 1.634775435377378e-05
253 0.0035077049396932125 0.05 1.606424484634772e-05
254 0.003471068572252989 0.05 1.5730431186966598e-05
255 0.003438491141423583 0.05 1.54365407070145e-05
256 0.0034028212539851665 0.05 1.5117934708541725e-05
257 0.003374224528670311 0.05 1.4864906006550882e-05
258 0.003340701572597027 0.05 1.4571008250641171e-05
259 0.003311044769361615 0.05 1.43134511745302e-05
260 0.003282577730715275 0.05 1.406838509865338e-05
261 0.0032471022568643093 0.05 1.3765949915978126e-05
262 0.0032179648987948895 0.05 1.3520005268219393e-05
263 0.003194656455889344 0.05 1.3324856809049379e-05
264 0.0031589160207659006 0.05 1.3028378816670738e-05
265 0.00312864244915545 0.05 1.2779859389411286e-05
266 0.0031009733211249113 0.05 1.255481311090989e-05
267 0.0030758625362068415 0.05 1.2352305930107832e-05
268 0.003050379455089569 0.05 1.2148480891482905e-05
269 0.003017744980752468 0.05 1.1889929737662897e-05
270 0.002990604843944311 0.05 1.1677027941914275e-05
271 0.0029637629631906748 0.05 1.1468355296528898e-05
272 0.0029375343583524227 0.05 1.126626921177376e-05
273 0.0029109236784279346 0.05 1.1063075362471864e-05
274 0.0028856806457042694 0.05 1.0872033271880355e-05
275 0.0028566173277795315 0.05 1.0654139259713702e-05
276 0.0028369086794555187 0.05 1.0507634215173312e-05
277 0.0028083794750273228 0.05 1.0297358130628709e-05
278 0.0027844177093356848 0.05 1.0122385901922826e-05
279 0.0027574656996876 0.05 9.92737477645278e-06
280 0.0027363037224859 0.05 9.775587386684492e-06
281 0.002711918670684099 0.05 9.60212855716236e-06
282 0.0026916428469121456 0.05 9.459084139962215e-06
283 0.002664534142240882 0.05 9.269509973819368e-06
284 0.0026377374306321144 0.05 9.084003067982849e-06
285 0.0026142725255340338 0.05 8.923103450797498e-06
286 0.0025904523208737373 0.05 8.761237040744163e-06
287 0.002570253796875477 0.05 8.625141163065564e-06
288 0.0025520960334688425 0.05 8.503706339979544e-06
289 0.00252321339212358 0.05 8.312319550896063e-06
290 0.0025026395451277494 0.05 8.177316885848995e-06
291 0.0024790074676275253 0.05 8.023611371754669e-06
292 0.0024595442228019238 0.05 7.898114745330531e-06
293 0.0024354145862162113 0.05 7.743906280666124e-06
294 0.002417142502963543 0.05 7.628141247550957e-06
295 0.0023942766711115837 0.05 7.484501111321151e-06
296 0.002387409098446369 0.05 7.4416270763322245e-06
297 0.0023550321348011494 0.05 7.241156708914787e-06
298 0.002333638723939657 0.05 7.110194474080345e-06
299 0.0023150648921728134 0.05 6.997462151048239e-06
300 0.002296058926731348 0.05 6.883039532112889e-06
301 0.002273947698995471 0.05 6.75110914016841e-06
302 0.002253517508506775 0.05 6.630344159930246e-06
303 0.0022345436736941338 0.05 6.519163434859365e-06
304 0.0022165479604154825 0.05 6.4145833675866015e-06
305 0.002199710812419653 0.05 6.317501629382605e-06
306 0.0021786533761769533 0.05 6.197128641360905e-06
307 0.0021641049534082413 0.05 6.114639745646855e-06
308 0.0021456703543663025 0.05 6.010909601172898e-06
309 0.00212445599026978 0.05 5.892637091164943e-06
310 0.0021107301581650972 0.05 5.816739758301992e-06
311 0.0020904892589896917 0.05 5.705716375814518e-06
312 0.0020718455780297518 0.05 5.604398211289663e-06
313 0.0020602496806532145 0.05 5.541838618228212e-06
314 0.002038870705291629 0.05 5.427422820503125e-06
315 0.0020226635970175266 0.05 5.3414787544170395e-06
316 0.0020045468118041754 0.05 5.246221007837448e-06
317 0.0019884209614247084 0.05 5.162153684068471e-06
318 0.0019682839047163725 0.05 5.058127044321736e-06
319 0.0019553974270820618 0.05 4.992111826140899e-06
320 0.0019362678285688162 0.05 4.8949136726150755e-06
321 0.0019221112597733736 0.05 4.823599738301709e-06
322 0.0019070371054112911 0.05 4.748238097818103e-06
323 0.00189070007763803 0.05 4.667233497457346e-06
324 0.0018782480619847775 0.05 4.605959929904202e-06
325 0.001861064461991191 0.05 4.5220667743706144e-06
326 0.001855512848123908 0.05 4.495129360293504e-06
327 0.0018306857673451304 0.05 4.37564176536398e-06
328 0.001822523190639913 0.05 4.336709935159888e-06
329 0.0018024371238425374 0.05 4.241646820446476e-06
330 0.0017865659901872277 0.05 4.167276983935153e-06
331 0.0017722344491630793 0.05 4.1006869651027955e-06
332 0.0017580209532752633 0.05 4.035174697492039e-06
