
  0%|                                                                                                                                                                                                                                                                                                                                                                              | 0/10 [00:00<?, ?it/s]
0, 0.1364392638206482
1, 0.1364392638206482
2, 0.129792258143425
3, 0.1169479712843895
4, 0.09893637150526047
5, 0.07756032049655914
6, 0.05549614131450653
7, 0.0387730598449707
8, 0.027045464143157005
9, 0.01948966085910797
10, 0.015038183890283108
11, 0.01264053862541914
12, 0.011447637341916561
13, 0.01086517982184887
14, 0.010523649863898754
15, 0.010215475223958492
16, 0.009841393679380417
17, 0.009367188438773155
18, 0.00880504958331585
19, 0.008180840872228146
20, 0.007529693655669689
21, 0.006880234926939011
22, 0.006261843256652355
23, 0.005697040818631649
24, 0.005200870800763369
25, 0.004777942784130573
26, 0.004425425548106432
27, 0.004136829171329737
28, 0.0039021628908813
29, 0.0037089879624545574
30, 0.0035452647134661674
31, 0.0034007939975708723
32, 0.0032659415155649185
33, 0.0031345784664154053
34, 0.0030030065681785345
35, 0.0028688907623291016
36, 0.0027320869266986847
37, 0.0025934705045074224
38, 0.0024547758512198925
39, 0.002318154787644744
40, 0.002185908844694495
41, 0.002059872029349208
42, 0.0019417105941101909
43, 0.0018322987016290426
44, 0.0017321244813501835
45, 0.0016413507983088493
46, 0.0015595204895362258
47, 0.0014860471710562706
48, 0.0014202769380062819
49, 0.0013612441252917051
50, 0.0013079445343464613
51, 0.0012596601154655218
52, 0.0012156217126175761
53, 0.0011752622667700052
54, 0.0011379234492778778
55, 0.001103393966332078
56, 0.0010712913936004043
57, 0.0010414300486445427
58, 0.0010135879274457693
59, 0.000987701816484332
60, 0.0009635634487494826
61, 0.0009412853978574276
62, 0.0009204910020343959
63, 0.0009013429516926408
64, 0.000883609929587692
65, 0.0008672851836308837
66, 0.0008522362331859767
67, 0.0008383359527215362
68, 0.0008256199071183801
69, 0.000813865743111819
70, 0.0008031129254959524
71, 0.0007932414300739765
72, 0.0007841605111025274
73, 0.000775850610807538
74, 0.0007682598661631346
75, 0.0007613024208694696
76, 0.0007549216388724744
77, 0.0007491223514080048
78, 0.0007438620086759329
79, 0.0007390682585537434
80, 0.0007347464561462402
81, 0.0007308332133106887
82, 0.000727345235645771
83, 0.0007242354331538081
84, 0.0007214501383714378
85, 0.0007189889438450336
86, 0.0007168463198468089
87, 0.0007149722659960389
88, 0.0007133344188332558
89, 0.0007119949441403151
90, 0.0007108549471013248
91, 0.0007098912028595805
92, 0.0007091144798323512
93, 0.0007084899116307497
94, 0.0007080254144966602
95, 0.0007076754118315876
96, 0.0007074183668009937
97, 0.0007072754669934511
98, 0.0007071818108670413
99, 0.0007071445579640567
0 2.419102191925049 0.05 7.64051628112793
1 2.2590482234954834 0.05 6.662931442260742
2 2.0915727615356445 0.05 5.71163272857666
3 1.8938044309616089 0.05 4.682573318481445
4 1.6141196489334106 0.05 3.4016199111938477
5 1.2362232208251953 0.05 1.9952993392944336
6 0.8045364618301392 0.05 0.8450954556465149
7 0.5749054551124573 0.05 0.43152615427970886
8 0.4720686972141266 0.05 0.2909542918205261
9 0.3923148512840271 0.05 0.2009480744600296
10 0.3378186821937561 0.05 0.14899842441082
11 0.29667696356773376 0.05 0.11491638422012329
12 0.2651766240596771 0.05 0.09180888533592224
13 0.2400747537612915 0.05 0.07525014877319336
14 0.219569593667984 0.05 0.06294462084770203
15 0.2026377022266388 0.05 0.053611114621162415
16 0.18851447105407715 0.05 0.04639847204089165
17 0.17652079463005066 0.05 0.0406823493540287
18 0.1661851853132248 0.05 0.03605777770280838
19 0.15712058544158936 0.05 0.03223150223493576
20 0.14906932413578033 0.05 0.029012884944677353
21 0.14183054864406586 0.05 0.02626357600092888
22 0.13528214395046234 0.05 0.023894354701042175
23 0.12930864095687866 0.05 0.021830786019563675
24 0.12385673075914383 0.05 0.0200287364423275
25 0.11883602291345596 0.05 0.018437862396240234
26 0.11421433836221695 0.05 0.017031606286764145
27 0.10993928462266922 0.05 0.015780474990606308
28 0.1059788390994072 0.05 0.014664007350802422
29 0.10228613764047623 0.05 0.01365991123020649
30 0.0988466739654541 0.05 0.012756701558828354
31 0.0956188514828682 0.05 0.01193716935813427
32 0.09259109944105148 0.05 0.011193162761628628
33 0.08973946422338486 0.05 0.01051432266831398
34 0.08704949915409088 0.05 0.009893430396914482
35 0.08449671417474747 0.05 0.009321674704551697
36 0.08207840472459793 0.05 0.008795734494924545
37 0.07977362722158432 0.05 0.008308700285851955
38 0.0775798112154007 0.05 0.007857994176447392
39 0.07549139857292175 0.05 0.007440623361617327
40 0.07348737865686417 0.05 0.007050824351608753
41 0.07156804203987122 0.05 0.00668732775375247
42 0.06973081082105637 0.05 0.006348391994833946
43 0.0679633617401123 0.05 0.006030648946762085
44 0.066260427236557 0.05 0.0057322196662425995
45 0.0646246075630188 0.05 0.005452682264149189
46 0.06305742263793945 0.05 0.005191426258534193
47 0.061538200825452805 0.05 0.004944289568811655
48 0.060070112347602844 0.05 0.0047111958265304565
49 0.0586613193154335 0.05 0.004492809064686298
50 0.05729272961616516 0.05 0.004285616800189018
51 0.05597010627388954 0.05 0.004090030211955309
52 0.05469515174627304 0.05 0.0039058178663253784
53 0.05345804989337921 0.05 0.0037311315536499023
54 0.05225971341133118 0.05 0.003565729595720768
55 0.0511026605963707 0.05 0.0034095835871994495
56 0.049975283443927765 0.05 0.003260805271565914
57 0.04888547956943512 0.05 0.0031201401725411415
58 0.0478271022439003 0.05 0.002986499574035406
59 0.04680129513144493 0.05 0.0028597628697752953
60 0.04580869898200035 0.05 0.002739745657891035
61 0.04484241455793381 0.05 0.0026253806427121162
62 0.04389951378107071 0.05 0.0025161337107419968
63 0.0429903082549572 0.05 0.002412989269942045
64 0.04210585728287697 0.05 0.0023147244937717915
65 0.041244372725486755 0.05 0.002220975235104561
66 0.04040979966521263 0.05 0.0021320022642612457
67 0.039595555514097214 0.05 0.0020469496957957745
68 0.03880336135625839 0.05 0.0019658617675304413
69 0.03802884370088577 0.05 0.0018881678115576506
70 0.03728873282670975 0.05 0.001815388211980462
71 0.03655443713068962 0.05 0.0017445943085476756
72 0.0358465313911438 0.05 0.001677677733823657
73 0.03515945002436638 0.05 0.0016139810904860497
74 0.03448358550667763 0.05 0.0015525270719081163
75 0.033832162618637085 0.05 0.0014944239519536495
76 0.03318917751312256 0.05 0.00143816031049937
77 0.03257444128394127 0.05 0.0013853777199983597
78 0.0319647341966629 0.05 0.0013340022414922714
79 0.031378667801618576 0.05 0.001285533420741558
80 0.030801603570580482 0.05 0.0012386851012706757
81 0.030239848420023918 0.05 0.001193915493786335
82 0.029694970697164536 0.05 0.0011512779165059328
83 0.029163390398025513 0.05 0.0011104277800768614
84 0.028641611337661743 0.05 0.0010710489004850388
85 0.028132840991020203 0.05 0.0010333358077332377
86 0.02763705886900425 0.05 0.0009972359985113144
87 0.027153722941875458 0.05 0.0009626603568904102
88 0.02668391913175583 0.05 0.00092963723000139
89 0.02622358873486519 0.05 0.0008978391997516155
90 0.025770900771021843 0.05 0.0008671085815876722
91 0.0253311637789011 0.05 0.0008377695921808481
92 0.024906041100621223 0.05 0.0008098857360891998
93 0.02448664978146553 0.05 0.0007828400703147054
94 0.024077363312244415 0.05 0.0007568889413960278
95 0.023678384721279144 0.05 0.0007320124423131347
96 0.023284267634153366 0.05 0.0007078471244312823
97 0.022904882207512856 0.05 0.0006849683122709394
98 0.0225309319794178 0.05 0.0006627849070355296
99 0.02216498926281929 0.05 0.000641430146060884

 10%|███████████████████████████████████▊                                                                                                                                                                                                                                                                                                                                  | 1/10 [00:41<06:10, 41.17s/it]
0, 0.1123598963022232
1, 0.1123598963022232
2, 0.1047879084944725
3, 0.0904693454504013
4, 0.07124543190002441
5, 0.05020035430788994
6, 0.03146941587328911
7, 0.02033022791147232
8, 0.01486844103783369
9, 0.01292741671204567
10, 0.01279041450470686
11, 0.013342423364520073
12, 0.01398178469389677
13, 0.01443927176296711
14, 0.014627531170845032
15, 0.014555921778082848
16, 0.014270184561610222
17, 0.013828076422214508
18, 0.013284020125865936
19, 0.01267881691455841
20, 0.012041720561683178
21, 0.011393653228878975
22, 0.01074901595711708
23, 0.010116023942828178
24, 0.00950431264936924
25, 0.008919579908251762
26, 0.008368702605366707
27, 0.007856912910938263
28, 0.0073880888521671295
29, 0.006962886080145836
30, 0.006581817753612995
31, 0.006242208182811737
32, 0.00593910925090313
33, 0.005667763762176037
34, 0.005423255264759064
35, 0.005200371146202087
36, 0.004994896240532398
37, 0.004803377203643322
38, 0.004623664077371359
39, 0.004454409703612328
40, 0.004294882994145155
41, 0.004144222475588322
42, 0.004002214875072241
43, 0.0038687093183398247
44, 0.0037435651756823063
45, 0.0036269198171794415
46, 0.003518831916153431
47, 0.0034187939018011093
48, 0.0033264080993831158
49, 0.003241423051804304
50, 0.00316354027017951
51, 0.0030920817516744137
52, 0.00302662025205791
53, 0.0029664733447134495
54, 0.0029112319462001324
55, 0.002860331442207098
56, 0.002813255414366722
57, 0.0027695668395608664
58, 0.0027289697900414467
59, 0.002691163681447506
60, 0.002655935473740101
61, 0.0026231154333800077
62, 0.0025924560613930225
63, 0.002563904970884323
64, 0.0025372407399117947
65, 0.0025123958475887775
66, 0.002489223377779126
67, 0.0024675573222339153
68, 0.0024474214296787977
69, 0.0024286776315420866
70, 0.0024112798273563385
71, 0.0023951453622430563
72, 0.0023802192881703377
73, 0.0023664054460823536
74, 0.0023536146618425846
75, 0.002341880463063717
76, 0.002331071998924017
77, 0.002321162261068821
78, 0.00231216661632061
79, 0.0023038662038743496
80, 0.0022963823284953833
81, 0.002289548283442855
82, 0.002283445792272687
83, 0.0022779861465096474
84, 0.0022730641067028046
85, 0.002268731128424406
86, 0.002264957409352064
87, 0.0022616335190832615
88, 0.0022587613202631474
89, 0.002256298903375864
90, 0.002254252089187503
91, 0.0022525363601744175
92, 0.0022511607967317104
93, 0.002250077435746789
94, 0.0022492206189781427
95, 0.0022485810332000256
96, 0.0022481437772512436
97, 0.002247842960059643
98, 0.002247702097520232
99, 0.002247626194730401
0 2.717371940612793 0.05 8.139759063720703
1 2.5557990074157715 0.05 7.200568199157715
2 2.3845672607421875 0.05 6.268050193786621
3 2.190729856491089 0.05 5.290430545806885
4 1.9437644481658936 0.05 4.164861679077148
5 1.57911217212677 0.05 2.7487757205963135
6 1.1766034364700317 0.05 1.5260670185089111
7 0.8704693913459778 0.05 0.8352574706077576
8 0.7088006734848022 0.05 0.5538110733032227
9 0.5970519781112671 0.05 0.3929503262042999
10 0.5068598389625549 0.05 0.283197283744812
11 0.43465131521224976 0.05 0.20825496315956116
12 0.381803423166275 0.05 0.1606915444135666
13 0.3411544859409332 0.05 0.12829673290252686
14 0.30845916271209717 0.05 0.10488387942314148
15 0.2815157473087311 0.05 0.08736123889684677
16 0.25896281003952026 0.05 0.0739244669675827
17 0.23980161547660828 0.05 0.06338953971862793
18 0.2233080267906189 0.05 0.054969534277915955
19 0.20899508893489838 0.05 0.048148803412914276
20 0.19649237394332886 0.05 0.042560309171676636
21 0.18550308048725128 0.05 0.0379328653216362
22 0.17579340934753418 0.05 0.03406579792499542
23 0.16714634001255035 0.05 0.03079691156744957
24 0.15940189361572266 0.05 0.02800917997956276
25 0.15241222083568573 0.05 0.025606662034988403
26 0.14605382084846497 0.05 0.02351469174027443
27 0.1402452141046524 0.05 0.021681509912014008
28 0.1349000632762909 0.05 0.020060313865542412
29 0.1299520581960678 0.05 0.018615711480379105
30 0.12536577880382538 0.05 0.01732492446899414
31 0.12108515948057175 0.05 0.016162000596523285
32 0.11707893013954163 0.05 0.01511022262275219
33 0.11331822723150253 0.05 0.014155099168419838
34 0.10977990180253983 0.05 0.013284923508763313
35 0.10644473880529404 0.05 0.012489980086684227
36 0.10329420119524002 0.05 0.011761571280658245
37 0.10030253976583481 0.05 0.011090146377682686
38 0.09747239202260971 0.05 0.010473133996129036
39 0.09478364884853363 0.05 0.009903306141495705
40 0.092230886220932 0.05 0.00937704835087061
41 0.08980291336774826 0.05 0.008889845572412014
42 0.08748988062143326 0.05 0.00843779742717743
43 0.08527792990207672 0.05 0.008016536012291908
44 0.08316444605588913 0.05 0.007624102756381035
45 0.08115607500076294 0.05 0.007260314654558897
46 0.07922077178955078 0.05 0.006918174214661121
47 0.07737495750188828 0.05 0.006599548738449812
48 0.0756089985370636 0.05 0.006301737856119871
49 0.0739019513130188 0.05 0.00602039834484458
50 0.07226695120334625 0.05 0.005756955593824387
51 0.07069949805736542 0.05 0.005509928800165653
52 0.06918854266405106 0.05 0.005276934243738651
53 0.06772950291633606 0.05 0.005056722089648247
54 0.06632654368877411 0.05 0.004849400836974382
55 0.06497339904308319 0.05 0.004653552547097206
56 0.06366714090108871 0.05 0.004468318074941635
57 0.06240377947688103 0.05 0.0042927460744977
58 0.061184871941804886 0.05 0.004126686602830887
59 0.060008857399225235 0.05 0.003969575744122267
60 0.058862537145614624 0.05 0.0038193664513528347
61 0.05776171386241913 0.05 0.0036778459325432777
62 0.056687839329242706 0.05 0.0035423641093075275
63 0.05564314126968384 0.05 0.0034130027052015066
64 0.05463919788599014 0.05 0.0032909554429352283
65 0.0536600686609745 0.05 0.0031740651465952396
66 0.05271533131599426 0.05 0.0030632843263447285
67 0.05178453028202057 0.05 0.002956061391159892
68 0.05089307948946953 0.05 0.002855162601917982
69 0.050023291260004044 0.05 0.002758404240012169
70 0.049178581684827805 0.05 0.002666032174602151
71 0.04835500568151474 0.05 0.002577485516667366
72 0.0475478433072567 0.05 0.002492154948413372
73 0.04676977917551994 0.05 0.0024112595710903406
74 0.0460064522922039 0.05 0.0023331940174102783
75 0.045264456421136856 0.05 0.002258541062474251
76 0.044541243463754654 0.05 0.002186946105211973
77 0.04383614659309387 0.05 0.0021182545460760593
78 0.043146196752786636 0.05 0.0020520994439721107
79 0.04248053953051567 0.05 0.001989268697798252
80 0.04181939363479614 0.05 0.0019278302788734436
81 0.04118309170007706 0.05 0.0018696109764277935
82 0.040556225925683975 0.05 0.0018131278920918703
83 0.03994496166706085 0.05 0.001758884871378541
84 0.039350204169750214 0.05 0.0017068971646949649
85 0.03877159208059311 0.05 0.0016570690786466002
86 0.03819063678383827 0.05 0.0016077820910140872
87 0.037638746201992035 0.05 0.0015616498421877623
88 0.037089262157678604 0.05 0.0015163859352469444
89 0.036560434848070145 0.05 0.0014734521973878145
90 0.036037642508745193 0.05 0.001431614626199007
91 0.035526785999536514 0.05 0.0013913142029196024
92 0.035026270896196365 0.05 0.0013523875968530774
93 0.03453325480222702 0.05 0.0013145843986421824
94 0.034057267010211945 0.05 0.001278594834730029
95 0.03358747810125351 0.05 0.0012435640674084425
96 0.03311793506145477 0.05 0.0012090374948456883
97 0.03267310559749603 0.05 0.0011767770629376173
98 0.032221559435129166 0.05 0.0011444753035902977
99 0.031797099858522415 0.05 0.00111452117562294
inversion time : 39.81239557266235

 20%|███████████████████████████████████████████████████████████████████████▌                                                                                                                                                                                                                                                                                              | 2/10 [01:21<05:27, 40.96s/it]
1, 0.09775816649198532
2, 0.09261514991521835
3, 0.08272568881511688
4, 0.0690140500664711
5, 0.05310670658946037
6, 0.0375177375972271
7, 0.026797711849212646
8, 0.020150059834122658
9, 0.01625075936317444
10, 0.013919265940785408
11, 0.012371222488582134
12, 0.011173508130013943
13, 0.010127079673111439
14, 0.009165476076304913
15, 0.008280557580292225
16, 0.007480106316506863
17, 0.0067695071920752525
18, 0.006148847751319408
19, 0.005614297464489937
20, 0.005163102876394987
21, 0.004792632535099983
22, 0.00449755135923624
23, 0.0042684925720095634
24, 0.004090800415724516
25, 0.00394726637750864
26, 0.0038196202367544174
27, 0.003692242782562971
28, 0.0035554226487874985
29, 0.0034046312794089317
30, 0.0032402470242232084
31, 0.003066339995712042
32, 0.0028890217654407024
33, 0.002715275390073657
34, 0.002550080418586731
35, 0.002397028263658285
36, 0.00225824024528265
37, 0.00213423278182745
38, 0.002024323446676135
39, 0.0019270021002739668
40, 0.0018405416049063206
41, 0.0017633376410230994
42, 0.001693525817245245
43, 0.0016297027468681335
44, 0.001570564229041338
45, 0.0015151011757552624
46, 0.001462586922571063
47, 0.00141262193210423
48, 0.0013650537002831697
49, 0.0013198524247854948
50, 0.001277084113098681
51, 0.001236658077687025
52, 0.0011987392790615559
53, 0.0011633940739557147
54, 0.0011305774096399546
55, 0.0011001559905707836
56, 0.001071896986104548
57, 0.0010456109885126352
58, 0.0010210956679657102
59, 0.000998172676190734
60, 0.000976718496531248
61, 0.0009566714288666844
62, 0.0009377904934808612
63, 0.0009201805805787444
64, 0.0009036939591169357
65, 0.0008883289992809296
66, 0.0008739596232771873
67, 0.000860638334415853
68, 0.000848193361889571
69, 0.0008366444963030517
70, 0.0008259493624791503
71, 0.0008160722791217268
72, 0.0008069141185842454
73, 0.000798455614130944
74, 0.0007907022954896092
75, 0.000783571507781744
76, 0.000777053355704993
77, 0.0007710810168646276
78, 0.0007656235247850418
79, 0.000760671216994524
80, 0.0007561756647191942
81, 0.0007521555526182055
82, 0.0007485064561478794
83, 0.0007452362915500998
84, 0.0007423479110002518
85, 0.0007398066809400916
86, 0.0007375505520030856
87, 0.0007356085698120296
88, 0.000733931316062808
89, 0.0007324954494833946
90, 0.0007312667439691722
91, 0.000730280764400959
92, 0.000729490420781076
93, 0.000728838553186506
94, 0.0007283415179699659
95, 0.0007279889541678131
96, 0.0007277248660102487
97, 0.0007275658426806331
98, 0.000727481790818274
99, 0.0007274446543306112
0 2.5382723808288574 0.05 8.790190696716309
1 2.384148359298706 0.05 7.755117416381836
2 2.1843204498291016 0.05 6.509603500366211
3 1.8552932739257812 0.05 4.69620418548584
4 1.4324231147766113 0.05 2.7993969917297363
5 1.0298941135406494 0.05 1.4471280574798584
6 0.7638306617736816 0.05 0.796005368232727
7 0.5792580842971802 0.05 0.45778971910476685
8 0.47549548745155334 0.05 0.3084712028503418
9 0.4076049029827118 0.05 0.2266734540462494
10 0.35850638151168823 0.05 0.1753539890050888
11 0.32106196880340576 0.05 0.14063698053359985
12 0.2914661169052124 0.05 0.11590389162302017
13 0.2673960328102112 0.05 0.09755101054906845
14 0.2474430799484253 0.05 0.08353576809167862
15 0.23067578673362732 0.05 0.07259820401668549
16 0.2163398563861847 0.05 0.06385500729084015
17 0.20388510823249817 0.05 0.05671433359384537
18 0.19291238486766815 0.05 0.05077408626675606
19 0.18311336636543274 0.05 0.045746929943561554
20 0.17430418729782104 0.05 0.04145123064517975
21 0.16631273925304413 0.05 0.03773747757077217
22 0.15902717411518097 0.05 0.03450360894203186
23 0.15234817564487457 0.05 0.03166622668504715
24 0.14620350301265717 0.05 0.029163353145122528
25 0.14054088294506073 0.05 0.02694803848862648
26 0.135293647646904 0.05 0.024973340332508087
27 0.13043242692947388 0.05 0.023210952058434486
28 0.12590639293193817 0.05 0.02162805199623108
29 0.12167257070541382 0.05 0.020197948440909386
30 0.11771723628044128 0.05 0.01890609785914421
31 0.11399968713521957 0.05 0.01773083209991455
