
  0%|                                                                                                                                                                                                                                                                                                                                                                              | 0/10 [00:00<?, ?it/s]
0, 0.1364392638206482
1, 0.1364392638206482
2, 0.12979233264923096
3, 0.11694806069135666
4, 0.09893593192100525
5, 0.07756030559539795
6, 0.055496178567409515
7, 0.0388256274163723
8, 0.02722221240401268
9, 0.019793204963207245
10, 0.015393036417663097
11, 0.012939512729644775
12, 0.011598209850490093
13, 0.010818323120474815
14, 0.01027661096304655
15, 0.009808213450014591
16, 0.009342394769191742
17, 0.008861657232046127
18, 0.008372597396373749
19, 0.00789199210703373
20, 0.007438166998326778
21, 0.007025653030723333
22, 0.006664161570370197
23, 0.006358524318784475
24, 0.006110633723437786
25, 0.005919300019741058
26, 0.005779882427304983
27, 0.005686392541974783
28, 0.00563151016831398
29, 0.005606217309832573
0 2.5123164653778076 0.05 7.1402482986450195 0.7761817574501038
1 2.351210832595825 0.05 6.253856182098389 0.7223566770553589
2 2.1823246479034424 0.05 5.387699127197266 0.6759315729141235
3 1.9794734716415405 0.05 4.432656288146973 0.6482256650924683
4 1.6754496097564697 0.05 3.175612211227417 0.6443673372268677
5 1.2964731454849243 0.05 1.901479721069336 0.6452782154083252
6 0.9131085872650146 0.05 0.9432125687599182 0.6506685614585876
7 0.6585630178451538 0.05 0.4906359910964966 0.6386524438858032
8 0.5219171047210693 0.05 0.30815398693084717 0.6196898221969604
9 0.4293099343776703 0.05 0.20850025117397308 0.6013164520263672
10 0.36481595039367676 0.05 0.15056094527244568 0.5867704153060913
11 0.3171500861644745 0.05 0.1137874498963356 0.5761712789535522
12 0.2793639898300171 0.05 0.08828878402709961 0.5697609186172485
13 0.2502935230731964 0.05 0.07087025046348572 0.5655964612960815
14 0.22705891728401184 0.05 0.05832325667142868 0.5618838667869568
15 0.20765124261379242 0.05 0.048779092729091644 0.5587414503097534
16 0.19184349477291107 0.05 0.041635021567344666 0.556472897529602
17 0.17894378304481506 0.05 0.0362241268157959 0.5549713373184204
18 0.16814549267292023 0.05 0.031984176486730576 0.554042398929596
19 0.15889473259449005 0.05 0.028561674058437347 0.5535693168640137
20 0.1508399099111557 0.05 0.02573932707309723 0.553403913974762
21 0.1437080204486847 0.05 0.023362897336483 0.5534504055976868
22 0.1373441368341446 0.05 0.021339531987905502 0.5536426901817322
23 0.13160623610019684 0.05 0.019593754783272743 0.553913950920105
24 0.12640494108200073 0.05 0.018075600266456604 0.554237961769104
25 0.12165369838476181 0.05 0.01674230955541134 0.5545727014541626
26 0.11728015542030334 0.05 0.015560148283839226 0.5549309849739075
27 0.1132420003414154 0.05 0.014507072046399117 0.555270791053772
28 0.10949169844388962 0.05 0.013562102802097797 0.5556069016456604
29 0.10600001364946365 0.05 0.012710906565189362 0.5559399127960205
30 0.10272558778524399 0.05 0.011937735602259636 0.5562505722045898
31 0.09965076297521591 0.05 0.011233780533075333 0.5565493106842041
32 0.0967496931552887 0.05 0.010589217767119408 0.5568331480026245
33 0.0940035805106163 0.05 0.009996626526117325 0.5571063756942749
34 0.09139624983072281 0.05 0.009449775330722332 0.5573907494544983
35 0.08891156315803528 0.05 0.00894295796751976 0.5576198101043701
36 0.08655417710542679 0.05 0.00847502052783966 0.5578734874725342
37 0.0842922180891037 0.05 0.00803784653544426 0.5581088066101074
38 0.08213651925325394 0.05 0.007631980814039707 0.558343768119812
39 0.08007436245679855 0.05 0.007253567688167095 0.5585715770721436
40 0.07809291034936905 0.05 0.006899029016494751 0.5587761402130127
41 0.07619242370128632 0.05 0.006567321717739105 0.5590084791183472
42 0.07436931878328323 0.05 0.0062568006105721 0.5592101812362671
43 0.07260474562644958 0.05 0.005963410250842571 0.55940842628479
44 0.07091738283634186 0.05 0.005689447745680809 0.5596010684967041
45 0.06928664445877075 0.05 0.005430798511952162 0.5597877502441406
46 0.06771772354841232 0.05 0.005187635309994221 0.5599755048751831
47 0.06619946658611298 0.05 0.0049576242454349995 0.5601273775100708
48 0.06473761051893234 0.05 0.004741088021546602 0.5603079795837402
49 0.06332366168498993 0.05 0.004536246880888939 0.560452938079834
50 0.06195541098713875 0.05 0.004342333879321814 0.5606009364128113
51 0.0606415756046772 0.05 0.004160118289291859 0.5607249140739441
52 0.05936208367347717 0.05 0.003986419178545475 0.5608679056167603
53 0.05812739208340645 0.05 0.0038223140873014927 0.5609759092330933
54 0.05693543329834938 0.05 0.0036671608686447144 0.5610907077789307
55 0.05577884241938591 0.05 0.003519684076309204 0.5611978769302368
56 0.054654575884342194 0.05 0.003379229689016938 0.5612993240356445
57 0.05356978252530098 0.05 0.0032464182004332542 0.5613874793052673
58 0.052509844303131104 0.05 0.003119220957159996 0.5614920854568481
59 0.05149048566818237 0.05 0.0029992912895977497 0.5615518689155579
60 0.050490282475948334 0.05 0.0028839008882641792 0.5616437196731567
61 0.049524109810590744 0.05 0.002774585038423538 0.561704158782959
62 0.04858200624585152 0.05 0.002670026384294033 0.5617966651916504
63 0.04766983911395073 0.05 0.0025707038585096598 0.5618370771408081
64 0.04678453877568245 0.05 0.0024761068634688854 0.5619001388549805
65 0.04591590538620949 0.05 0.0023850142024457455 0.5619579553604126
66 0.045073673129081726 0.05 0.002298320410773158 0.562017560005188
67 0.04425325244665146 0.05 0.002215415006503463 0.5620498657226562
68 0.04344797879457474 0.05 0.002135520800948143 0.5621103048324585
69 0.042675551027059555 0.05 0.0020602645818144083 0.5621335506439209
70 0.04191042482852936 0.05 0.0019870500545948744 0.5621899962425232
71 0.04117156192660332 0.05 0.0019176059868186712 0.5622247457504272
72 0.040443118661642075 0.05 0.0018503505270928144 0.5622560977935791
73 0.039742305874824524 0.05 0.0017867786809802055 0.5622760057449341
74 0.03905327990651131 0.05 0.0017253600526601076 0.5623155832290649
75 0.03838363662362099 0.05 0.0016666980227455497 0.5623487234115601
76 0.037722907960414886 0.05 0.0016098115593194962 0.5623751878738403
77 0.037081994116306305 0.05 0.0015555745922029018 0.5623922348022461
78 0.03645613044500351 0.05 0.0015035081887617707 0.5624138712882996
79 0.03584598749876022 0.05 0.0014536029193550348 0.5624199509620667
80 0.03524500131607056 0.05 0.0014052699552848935 0.5624574422836304
81 0.03466188162565231 0.05 0.001359154935926199 0.5624662637710571
82 0.03409105911850929 0.05 0.0013147573918104172 0.5624756813049316
83 0.03353393077850342 0.05 0.0012721361126750708 0.5624912977218628
84 0.03299045190215111 0.05 0.00123123568482697 0.5624938607215881
85 0.032455604523420334 0.05 0.0011916372459381819 0.5625213384628296
86 0.031929001212120056 0.05 0.001153281657025218 0.5625272393226624
87 0.031420182436704636 0.05 0.0011168171186000109 0.5625288486480713
88 0.03091483563184738 0.05 0.0010811814572662115 0.562541663646698
89 0.030427707359194756 0.05 0.0010473773581907153 0.562544584274292
90 0.02994529902935028 0.05 0.0010144297266378999 0.5625627040863037
91 0.02947559952735901 0.05 0.0009828562615439296 0.5625505447387695
92 0.029016198590397835 0.05 0.0009524577762931585 0.5625561475753784
93 0.028564445674419403 0.05 0.0009230310679413378 0.5625674724578857
94 0.0281230416148901 0.05 0.0008947243914008141 0.5625672340393066
95 0.027692172676324844 0.05 0.0008675184799358249 0.5625674724578857
96 0.02726905047893524 0.05 0.0008412105962634087 0.5625585317611694
97 0.02685287408530712 0.05 0.0008157296106219292 0.5625610947608948
98 0.026446159929037094 0.05 0.0007912067230790854 0.5625491142272949
99 0.026047518476843834 0.05 0.0007675336091779172 0.5625609159469604
tuning, 0, 0.0056535182520747185
tuning, 1, 0.003822548780590296
tuning, 2, 0.003240928053855896
tuning, 3, 0.002702780533581972
tuning, 4, 0.002168117556720972
tuning, 5, 0.0017435209592804313
tuning, 6, 0.001506251748651266
tuning, 7, 0.0014132875949144363
tuning, 8, 0.001342451898381114
tuning, 9, 0.0012373104691505432

 10%|███████████████████████████████████▊                                                                                                                                                                                                                                                                                                                                  | 1/10 [00:22<03:25, 22.79s/it]
0, 0.1123598963022232
1, 0.1123598963022232
2, 0.10478800535202026
3, 0.09046925604343414
4, 0.07124514877796173
5, 0.05020032450556755
6, 0.031469546258449554
7, 0.020359110087156296
8, 0.014924737624824047
9, 0.012938683852553368
10, 0.012658203952014446
11, 0.012994315475225449
12, 0.013388548046350479
13, 0.01361512765288353
14, 0.013617298565804958
15, 0.013422052375972271
16, 0.013080514036118984
17, 0.012647219002246857
18, 0.01216962095350027
19, 0.011684882454574108
20, 0.01121954433619976
21, 0.010790812782943249
22, 0.010410566814243793
23, 0.010085242800414562
24, 0.009817402809858322
25, 0.009607568383216858
26, 0.009452413767576218
27, 0.00934707373380661
28, 0.009284918196499348
29, 0.009255489334464073
0 2.8622934818267822 0.05 7.602252960205078 0.8279428482055664
1 2.6969211101531982 0.05 6.749172687530518 0.7908816933631897
2 2.5246753692626953 0.05 5.9145965576171875 0.7545945644378662
3 2.3318045139312744 0.05 5.045431613922119 0.7219610214233398
4 2.092294454574585 0.05 4.0621843338012695 0.701890766620636
5 1.7660694122314453 0.05 2.8942067623138428 0.7059154510498047
6 1.368842601776123 0.05 1.7386857271194458 0.737424373626709
7 1.0126537084579468 0.05 0.9515594244003296 0.7624906301498413
8 0.8032030463218689 0.05 0.5986387133598328 0.759651780128479
9 0.6810261011123657 0.05 0.4303695559501648 0.7472872734069824
10 0.581710696220398 0.05 0.31399887800216675 0.7338405847549438
11 0.4949813485145569 0.05 0.22734829783439636 0.7218483090400696
12 0.4288712441921234 0.05 0.17067420482635498 0.7117313742637634
13 0.3792145550251007 0.05 0.13343937695026398 0.7035233974456787
14 0.34007763862609863 0.05 0.10731740295886993 0.6967020034790039
15 0.3084867596626282 0.05 0.08830536156892776 0.6908127665519714
16 0.28252339363098145 0.05 0.07406668365001678 0.6856036186218262
17 0.2608758509159088 0.05 0.06315122544765472 0.68095862865448
18 0.2425919622182846 0.05 0.054609328508377075 0.6768542528152466
19 0.22692885994911194 0.05 0.0477852039039135 0.6732763051986694
20 0.21331800520420074 0.05 0.0422249436378479 0.6701641082763672
21 0.2013397216796875 0.05 0.037616029381752014 0.6675059199333191
22 0.19070400297641754 0.05 0.033746883273124695 0.6652305126190186
23 0.18119032680988312 0.05 0.030463799834251404 0.6632961630821228
24 0.17261819541454315 0.05 0.027649495750665665 0.6616948843002319
25 0.1648697704076767 0.05 0.025222960859537125 0.6603250503540039
26 0.15782682597637177 0.05 0.023114031180739403 0.6591700315475464
27 0.15140709280967712 0.05 0.02127191051840782 0.6582043170928955
28 0.14552195370197296 0.05 0.019650382921099663 0.6573755145072937
29 0.14009873569011688 0.05 0.018213041126728058 0.6566838622093201
30 0.13508820533752441 0.05 0.016933582723140717 0.6561094522476196
31 0.13044790923595428 0.05 0.015790224075317383 0.6556070446968079
32 0.12612827122211456 0.05 0.0147617869079113 0.655193567276001
33 0.12210562825202942 0.05 0.013835199177265167 0.6548388600349426
34 0.1183350682258606 0.05 0.012993942946195602 0.6545172929763794
35 0.11479146033525467 0.05 0.012227373197674751 0.6542507410049438
36 0.11146983504295349 0.05 0.011529984883964062 0.6540315747261047
37 0.10832478106021881 0.05 0.010888541117310524 0.6538213491439819
38 0.10535787045955658 0.05 0.010300256311893463 0.65364670753479
39 0.102542944252491 0.05 0.0097572086378932 0.6534963250160217
40 0.09986411780118942 0.05 0.009254073724150658 0.6533493995666504
41 0.09732872247695923 0.05 0.008790144696831703 0.6532343626022339
42 0.09491261094808578 0.05 0.008359145373106003 0.6531094312667847
43 0.09260136634111404 0.05 0.007956990972161293 0.6530056595802307
44 0.09039437770843506 0.05 0.007582229096442461 0.6528917551040649
45 0.08828135579824448 0.05 0.0072318934835493565 0.652797281742096
46 0.08626232296228409 0.05 0.006904882378876209 0.6527073383331299
47 0.08430924266576767 0.05 0.0065957531332969666 0.6526281833648682
48 0.0824517086148262 0.05 0.006308314856141806 0.6525269746780396
49 0.08065439015626907 0.05 0.006036289036273956 0.6524530649185181
50 0.07892783731222153 0.05 0.005780620500445366 0.6523788571357727
51 0.07726361602544785 0.05 0.005539417266845703 0.6522841453552246
52 0.07565633952617645 0.05 0.0053113470785319805 0.6522179841995239
53 0.07409972697496414 0.05 0.005095035769045353 0.6521314382553101
54 0.07261291146278381 0.05 0.004892623517662287 0.6520652770996094
55 0.07115833461284637 0.05 0.00469856895506382 0.6519913673400879
56 0.06974788755178452 0.05 0.004514151252806187 0.6519284248352051
57 0.06838937103748322 0.05 0.004340014886111021 0.6518580913543701
58 0.06707034260034561 0.05 0.00417421804741025 0.651802659034729
59 0.06578723341226578 0.05 0.004016033373773098 0.6517399549484253
60 0.06454393267631531 0.05 0.0038656711112707853 0.6516696810722351
61 0.06333079189062119 0.05 0.003721721237525344 0.6516152620315552
62 0.062160663306713104 0.05 0.0035854633897542953 0.6515709757804871
63 0.06102274730801582 0.05 0.0034553934819996357 0.6515107750892639
64 0.05991197004914284 0.05 0.003330743405967951 0.6514519453048706
65 0.05883825570344925 0.05 0.0032124295830726624 0.651380717754364
66 0.057792264968156815 0.05 0.0030992275569587946 0.6513378620147705
67 0.05676586553454399 0.05 0.0029901196248829365 0.6512609720230103
68 0.05577420815825462 0.05 0.0028865616768598557 0.6512099504470825
69 0.054803941398859024 0.05 0.0027870042249560356 0.6511662006378174
70 0.053864121437072754 0.05 0.0026922360993921757 0.6510913968086243
71 0.052939604967832565 0.05 0.002600611187517643 0.6510385274887085
72 0.05204705148935318 0.05 0.0025136584881693125 0.6509910225868225
73 0.05117097869515419 0.05 0.0024297491181641817 0.6509283781051636
74 0.05031358823180199 0.05 0.00234900857321918 0.6508698463439941
75 0.049486614763736725 0.05 0.002272424753755331 0.650804340839386
76 0.04866925626993179 0.05 0.002197978552430868 0.6507564783096313
77 0.047877658158540726 0.05 0.0021270608995109797 0.6506977081298828
78 0.04710567370057106 0.05 0.002059019636362791 0.6506448984146118
79 0.046349525451660156 0.05 0.001993446610867977 0.6505950689315796
80 0.0456082820892334 0.05 0.0019301963038742542 0.6505262851715088
81 0.04488564655184746 0.05 0.0018695152830332518 0.6504723429679871
82 0.04418535530567169 0.05 0.0018116352148354053 0.650415301322937
83 0.04348830133676529 0.05 0.0017549265176057816 0.6503480076789856
84 0.042815886437892914 0.05 0.0017010767478495836 0.650294303894043
85 0.0421585738658905 0.05 0.001649247482419014 0.6502422094345093
86 0.04150964319705963 0.05 0.0015988657251000404 0.6501843929290771
87 0.04087362438440323 0.05 0.0015502450987696648 0.6501350998878479
88 0.04025144502520561 0.05 0.0015034086536616087 0.6500741839408875
89 0.03965408727526665 0.05 0.0014591164654120803 0.6500148773193359
90 0.03906053304672241 0.05 0.0014157623518258333 0.6499660611152649
91 0.03848131746053696 0.05 0.0013740860158577561 0.6498961448669434
92 0.0379117950797081 0.05 0.001333713880740106 0.649856686592102
93 0.03735794126987457 0.05 0.0012950301170349121 0.6497901678085327
94 0.0368121974170208 0.05 0.0012574696447700262 0.6497427225112915
95 0.036277417093515396 0.05 0.0012211998691782355 0.6496946811676025
96 0.03575511276721954 0.05 0.0011862886603921652 0.6496206521987915
97 0.035238709300756454 0.05 0.0011522695422172546 0.6495858430862427
98 0.034740809351205826 0.05 0.0011199377477169037 0.6495312452316284
99 0.034249722957611084 0.05 0.0010884993243962526 0.649470865726471
tuning, 0, 0.00922089722007513
tuning, 1, 0.006114152725785971
tuning, 2, 0.004942927043884993
tuning, 3, 0.004729606211185455
tuning, 4, 0.004657673183828592
tuning, 5, 0.0044603412970900536
tuning, 6, 0.0041658272966742516
tuning, 7, 0.00386655330657959
tuning, 8, 0.003621963318437338
tuning, 9, 0.003458405379205942

 20%|███████████████████████████████████████████████████████████████████████▌                                                                                                                                                                                                                                                                                              | 2/10 [00:45<02:59, 22.49s/it]
0, 0.09775816649198532
1, 0.09775816649198532
2, 0.09261521697044373
3, 0.08272557705640793
4, 0.06901426613330841
5, 0.05310666188597679
6, 0.03751775622367859
7, 0.02682868018746376
8, 0.02023860439658165
9, 0.016378577798604965
10, 0.014047592878341675
11, 0.012472884729504585
12, 0.011244799010455608
13, 0.010183218866586685
14, 0.009227128699421883
15, 0.008365481160581112
16, 0.007599271833896637
17, 0.00692907627671957
18, 0.006351289805024862
19, 0.005858934484422207
20, 0.005444355309009552
21, 0.00509984977543354
22, 0.004817700944840908
23, 0.0045912619680166245
24, 0.004414494149386883
25, 0.004281231667846441
26, 0.004185996484011412
27, 0.004123196937143803
28, 0.004086613655090332
29, 0.00406979164108634
0 2.738280773162842 0.05 8.710746765136719 0.8001052141189575
1 2.5752625465393066 0.05 7.704464435577393 0.7364590167999268
2 2.4098100662231445 0.05 6.746290683746338 0.6685183048248291
3 2.19579815864563 0.05 5.601241111755371 0.613165020942688
4 1.8230952024459839 0.05 3.8611626625061035 0.5947113633155823
5 1.3681896924972534 0.05 2.174663543701172 0.610903263092041
6 0.9676034450531006 0.05 1.087662696838379 0.6329697370529175
7 0.7062845826148987 0.05 0.5795072913169861 0.6238624453544617
8 0.5531775951385498 0.05 0.3554910123348236 0.6066864728927612
9 0.4631046652793884 0.05 0.2491482049226761 0.5908886790275574
10 0.40209266543388367 0.05 0.1878242790699005 0.5779690742492676
11 0.35690855979919434 0.05 0.14798352122306824 0.5678388476371765
12 0.32175949215888977 0.05 0.12027135491371155 0.5598006248474121
13 0.2932347357273102 0.05 0.09989190101623535 0.5532654523849487
14 0.26939597725868225 0.05 0.08431048691272736 0.5478032231330872
15 0.2492167204618454 0.05 0.07215289026498795 0.5431767106056213
16 0.23207147419452667 0.05 0.06256665289402008 0.5392320156097412
17 0.2174193263053894 0.05 0.05491559952497482 0.5358980894088745
18 0.20476509630680084 0.05 0.04870922863483429 0.5331219434738159
19 0.19373680651187897 0.05 0.04360374063253403 0.5307850241661072
20 0.1840461641550064 0.05 0.03935074806213379 0.5288337469100952
21 0.17544351518154144 0.05 0.03575807064771652 0.5271879434585571
22 0.16773439943790436 0.05 0.03268463909626007 0.5257924795150757
23 0.16075457632541656 0.05 0.030021069571375847 0.5245926976203918
24 0.1543922871351242 0.05 0.027691766619682312 0.5235834121704102
25 0.14857648313045502 0.05 0.02564481645822525 0.5226987600326538
26 0.1432136744260788 0.05 0.023826949298381805 0.5219654440879822
27 0.13825984299182892 0.05 0.02220708690583706 0.5213431119918823
28 0.13365738093852997 0.05 0.02075321413576603 0.5208169221878052
29 0.12937170267105103 0.05 0.019443660974502563 0.520409107208252
30 0.1253567337989807 0.05 0.01825554110109806 0.5200814008712769
31 0.12158295512199402 0.05 0.01717294752597809 0.5198224782943726
32 0.11802874505519867 0.05 0.01618359610438347 0.5196198225021362
33 0.11466937512159348 0.05 0.015275459736585617 0.5194951295852661
34 0.1114802286028862 0.05 0.014437604695558548 0.5194132924079895
35 0.10845053195953369 0.05 0.013663526624441147 0.5193575024604797
36 0.10556324571371078 0.05 0.012945681810379028 0.5193523168563843
