
  0%|                                                                                                                       | 0/10 [00:00<?, ?it/s]
0, 0.1364392638206482
1, 0.1364392638206482
2, 0.1297922134399414
3, 0.11694800108671188
4, 0.09893607348203659
5, 0.07756029069423676
6, 0.05549609661102295
7, 0.03879798576235771
8, 0.02712932601571083
9, 0.0196332186460495
10, 0.015203671529889107
11, 0.012775003910064697
12, 0.011503889225423336
13, 0.010817336849868298
14, 0.010367652401328087
15, 0.009969977661967278
16, 0.009539749473333359
17, 0.009050305932760239
18, 0.008508963510394096
19, 0.007937389425933361
20, 0.007361274212598801
21, 0.0068016438744962215
22, 0.006274363957345486
23, 0.005790294148027897
24, 0.00535431457683444
25, 0.00496893934905529
26, 0.004632819909602404
27, 0.004343539476394653
28, 0.004097382538020611
29, 0.0038897409103810787
30, 0.0037167472764849663
31, 0.003574297297745943
32, 0.0034589413553476334
33, 0.003367781639099121
34, 0.0032968788873404264
35, 0.003244486404582858
36, 0.003207677975296974
37, 0.0031836810521781445
38, 0.003170071169734001
39, 0.003163788467645645
0 2.4825685024261475 0.05 7.451715469360352
1 2.316716432571411 0.05 6.489325523376465
2 2.1407315731048584 0.05 5.5408735275268555
3 1.926061987876892 0.05 4.485329627990723
4 1.6242753267288208 0.05 3.189870834350586
5 1.2640436887741089 0.05 1.9318702220916748
6 0.888433039188385 0.05 0.9543402194976807
7 0.6221433877944946 0.05 0.4679880142211914
8 0.48954811692237854 0.05 0.2897641062736511
9 0.4032707214355469 0.05 0.19662882387638092
tuning, 0, 0.010193693451583385
tuning, 1, 0.00881190039217472
tuning, 2, 0.007779300212860107
tuning, 3, 0.007006881292909384
tuning, 4, 0.006390353664755821
tuning, 5, 0.005862879566848278
tuning, 6, 0.005391327198594809
tuning, 7, 0.00496224919334054
tuning, 8, 0.004570725839585066
tuning, 9, 0.004217637237161398
tuning, 10, 0.0039010904729366302
tuning, 11, 0.003618986811488867
tuning, 12, 0.003366481512784958
tuning, 13, 0.0031378536950796843
tuning, 14, 0.002928786911070347
tuning, 15, 0.002737231319770217
tuning, 16, 0.002569187432527542
tuning, 17, 0.002428352367132902
tuning, 18, 0.0023120129480957985
tuning, 19, 0.0022139251232147217
tuning, 20, 0.002126099541783333
tuning, 21, 0.002044462598860264
tuning, 22, 0.0019672957714647055
tuning, 23, 0.0018928954377770424
tuning, 24, 0.0018197742756456137
tuning, 25, 0.0017476207576692104
tuning, 26, 0.001676832209341228
tuning, 27, 0.0016092614969238639
tuning, 28, 0.001546328654512763
tuning, 29, 0.0014882793184369802
tuning, 30, 0.0014346204698085785
tuning, 31, 0.0013850968098267913
tuning, 32, 0.0013398252194747329
tuning, 33, 0.0012984569184482098
tuning, 34, 0.0012604929506778717
tuning, 35, 0.0012249405262991786
tuning, 36, 0.0011894339695572853
tuning, 37, 0.0011540930718183517
tuning, 38, 0.0011185969924554229
tuning, 39, 0.0010848131496459246
tuning, 40, 0.0010538867209106684
tuning, 41, 0.0010275649838149548
tuning, 42, 0.0010063243098556995
tuning, 43, 0.0009873893577605486
tuning, 44, 0.0009677783818915486
tuning, 45, 0.0009443846065551043
tuning, 46, 0.0009160521440207958
tuning, 47, 0.0008862304384820163
tuning, 48, 0.0008585009491071105
tuning, 49, 0.0008343594963662326
tuning, 50, 0.0008144158637151122
tuning, 51, 0.0007973622414283454
tuning, 52, 0.0007822827319614589
tuning, 53, 0.0007678076508454978
tuning, 54, 0.0007541418890468776
tuning, 55, 0.0007408104720525444
tuning, 56, 0.0007285367464646697
tuning, 57, 0.0007176793878898025
tuning, 58, 0.0007076881593093276
tuning, 59, 0.0006985134677961469
tuning, 60, 0.0006902336026541889
tuning, 61, 0.0006816971581429243
tuning, 62, 0.0006730227032676339
tuning, 63, 0.0006631218711845577
tuning, 64, 0.0006523558404296637
tuning, 65, 0.0006405599415302277
tuning, 66, 0.0006286578136496246
tuning, 67, 0.0006167774554342031
tuning, 68, 0.0006054303958080709
tuning, 69, 0.0005945682059973478
tuning, 70, 0.0005844696424901485
tuning, 71, 0.0005751269636675715
tuning, 72, 0.0005665378412231803
tuning, 73, 0.000558329513296485
tuning, 74, 0.0005503114080056548
tuning, 75, 0.0005427658325061202
tuning, 76, 0.000535337021574378
tuning, 77, 0.0005283355712890625
tuning, 78, 0.0005215376149863005
tuning, 79, 0.0005149692296981812
tuning, 80, 0.0005087403696961701
tuning, 81, 0.0005026745493523777
tuning, 82, 0.0004970552981831133
tuning, 83, 0.000491647282615304
tuning, 84, 0.00048622896429151297
tuning, 85, 0.0004808502271771431
tuning, 86, 0.0004752164240926504
tuning, 87, 0.00046924338676035404
tuning, 88, 0.0004634109209291637
tuning, 89, 0.00045747062540613115
tuning, 90, 0.00045158350258134305
tuning, 91, 0.00044597452506422997
tuning, 92, 0.0004404812934808433
tuning, 93, 0.0004351999959908426
tuning, 94, 0.00042977099656127393
tuning, 95, 0.0004246715398039669
tuning, 96, 0.0004194052307866514
tuning, 97, 0.00041423243237659335
tuning, 98, 0.00040920436731539667
tuning, 99, 0.0004043233930133283
tuning, 100, 0.00039957635453902185
tuning, 101, 0.00039501371793448925
tuning, 102, 0.0003906406636815518
tuning, 103, 0.00038626030436716974
tuning, 104, 0.0003820447891484946
tuning, 105, 0.0003777823585551232
tuning, 106, 0.00037344390875659883
tuning, 107, 0.0003691895108204335
tuning, 108, 0.0003650046419352293
tuning, 109, 0.0003607558901421726
tuning, 110, 0.00035657105036079884
tuning, 111, 0.0003527035878505558
tuning, 112, 0.00034892497933469713
tuning, 113, 0.00034499901812523603
tuning, 114, 0.00034113950096070766
tuning, 115, 0.00033735489705577493
tuning, 116, 0.00033356837229803205
tuning, 117, 0.00032976851798594
tuning, 118, 0.00032613478833809495
tuning, 119, 0.00032252789242193103
tuning, 120, 0.0003189382259733975
tuning, 121, 0.0003154603182338178
tuning, 122, 0.0003119550528936088
tuning, 123, 0.00030859370599500835
tuning, 124, 0.00030527712078765035
tuning, 125, 0.00030205363873392344
tuning, 126, 0.00029887520940974355
tuning, 127, 0.0002957544638775289
tuning, 128, 0.0002926737070083618
tuning, 129, 0.0002894940262194723
tuning, 130, 0.00028647948056459427
tuning, 131, 0.0002834056213032454
tuning, 132, 0.00028042541816830635
tuning, 133, 0.00027748357388190925
tuning, 134, 0.0002746530226431787
tuning, 135, 0.0002718270698096603
tuning, 136, 0.00026905135018751025
tuning, 137, 0.0002663511550053954
tuning, 138, 0.0002636704593896866
tuning, 139, 0.00026097253430634737
tuning, 140, 0.0002582239103503525
tuning, 141, 0.00025566568365320563
tuning, 142, 0.000253102567512542
tuning, 143, 0.0002505822922103107
tuning, 144, 0.00024810913600958884
tuning, 145, 0.0002456370275467634
tuning, 146, 0.00024324358673766255
tuning, 147, 0.00024081335868686438
tuning, 148, 0.00023843474627938122
tuning, 149, 0.0002361085353186354
tuning, 150, 0.00023384582891594619
tuning, 151, 0.00023160548880696297
tuning, 152, 0.00022943444491829723
tuning, 153, 0.0002272580750286579
tuning, 154, 0.00022510180133394897
tuning, 155, 0.00022299580450635403
tuning, 156, 0.0002209213562309742
tuning, 157, 0.000218806293560192
tuning, 158, 0.00021679975907318294
tuning, 159, 0.00021479101269505918
tuning, 160, 0.00021280150394886732
tuning, 161, 0.00021086641936562955
tuning, 162, 0.00020895569468848407
tuning, 163, 0.00020708968804683536
tuning, 164, 0.0002052516065305099
tuning, 165, 0.0002033918135566637
tuning, 166, 0.00020158037659712136
tuning, 167, 0.00019973941380158067
tuning, 168, 0.0001979876251425594
tuning, 169, 0.0001962620735866949
tuning, 170, 0.00019453417917247862
tuning, 171, 0.00019282856374047697
tuning, 172, 0.00019117460760753602
tuning, 173, 0.00018950182129628956
tuning, 174, 0.00018788047600537539
tuning, 175, 0.0001862697972683236
tuning, 176, 0.000184684555279091
tuning, 177, 0.0001831414847401902
tuning, 178, 0.0001816180010791868
tuning, 179, 0.00018008906044997275
tuning, 180, 0.00017859286163002253
tuning, 181, 0.00017708685481920838
tuning, 182, 0.0001756491546984762
tuning, 183, 0.0001741755986586213
tuning, 184, 0.0001727567141642794
tuning, 185, 0.000171341685927473
tuning, 186, 0.00016995027544908226
tuning, 187, 0.0001685807656031102
tuning, 188, 0.00016721330757718533
tuning, 189, 0.0001658702822169289
tuning, 190, 0.00016452313866466284
tuning, 191, 0.00016322010196745396
tuning, 192, 0.00016190242604352534
tuning, 193, 0.0001606200821697712
tuning, 194, 0.00015935553528834134
tuning, 195, 0.00015813950449228287
tuning, 196, 0.00015690112195443362
tuning, 197, 0.00015564945351798087
tuning, 198, 0.0001544394763186574
tuning, 199, 0.00015323562547564507

 10%|███████████                                                                                                    | 1/10 [01:35<14:21, 95.68s/it]
0, 0.1123598963022232
1, 0.1123598963022232
2, 0.10478781908750534
3, 0.09046931564807892
4, 0.07124537229537964
5, 0.05020023509860039
6, 0.031469348818063736
7, 0.02034391462802887
8, 0.014894920401275158
9, 0.012931950390338898
10, 0.012724536471068859
11, 0.01317056454718113
12, 0.013688264414668083
13, 0.01402926817536354
14, 0.014122096821665764
15, 0.013982939533889294
16, 0.013660825788974762
17, 0.013210555538535118
18, 0.012682691216468811
19, 0.012116922065615654
20, 0.011540419422090054
21, 0.010973620228469372
22, 0.010428833775222301
23, 0.009914967231452465
24, 0.00943754892796278
25, 0.008999895304441452
26, 0.008603568188846111
27, 0.008249234408140182
28, 0.007936432957649231
29, 0.007664070930331945
30, 0.007430309429764748
31, 0.00723327836021781
32, 0.007070481777191162
33, 0.006939010228961706
34, 0.00683640455827117
35, 0.006759255193173885
36, 0.006704539060592651
37, 0.006668812595307827
38, 0.006648298352956772
39, 0.00663896044716239
0 2.850745439529419 0.05 7.88217830657959
1 2.6839818954467773 0.05 6.986964225769043
2 2.5080583095550537 0.05 6.101051330566406
3 2.311556577682495 0.05 5.18248987197876
4 2.0743353366851807 0.05 4.173374652862549
5 1.7523112297058105 0.05 2.97818660736084
6 1.360511064529419 0.05 1.7952855825424194
7 0.998602569103241 0.05 0.967196524143219
8 0.8045939803123474 0.05 0.627889096736908
9 0.6830040812492371 0.05 0.4524555802345276
tuning, 0, 0.046895831823349
tuning, 1, 0.042356349527835846
tuning, 2, 0.038189440965652466
tuning, 3, 0.03443939983844757
tuning, 4, 0.03113987110555172
tuning, 5, 0.02828519605100155
tuning, 6, 0.02584512159228325
tuning, 7, 0.02375817857682705
tuning, 8, 0.02196173369884491
tuning, 9, 0.020393896847963333
tuning, 10, 0.01899888925254345
tuning, 11, 0.01774020865559578
tuning, 12, 0.01658870093524456
tuning, 13, 0.015531468205153942
tuning, 14, 0.014560684561729431
tuning, 15, 0.013670047745108604
tuning, 16, 0.01285364106297493
tuning, 17, 0.012108750641345978
tuning, 18, 0.011429743841290474
tuning, 19, 0.010816488415002823
tuning, 20, 0.01026110164821148
tuning, 21, 0.009759741835296154
tuning, 22, 0.009306177496910095
tuning, 23, 0.00889716949313879
tuning, 24, 0.00852620042860508
tuning, 25, 0.008189437910914421
tuning, 26, 0.007881561294198036
tuning, 27, 0.007600405253469944
tuning, 28, 0.007341299206018448
tuning, 29, 0.007103465497493744
tuning, 30, 0.006884676404297352
tuning, 31, 0.006683262996375561
tuning, 32, 0.006496922578662634
tuning, 33, 0.006323708221316338
tuning, 34, 0.006162646226584911
tuning, 35, 0.00601104786619544
tuning, 36, 0.005867769476026297
tuning, 37, 0.005732507910579443
tuning, 38, 0.0056045157834887505
tuning, 39, 0.005484246648848057
tuning, 40, 0.0053705195896327496
tuning, 41, 0.005263347178697586
tuning, 42, 0.00516181904822588
tuning, 43, 0.005065459758043289
tuning, 44, 0.004974054172635078
tuning, 45, 0.004887063056230545
tuning, 46, 0.004804059863090515
tuning, 47, 0.004725070204585791
tuning, 48, 0.004649732727557421
tuning, 49, 0.0045780763030052185
tuning, 50, 0.004509792663156986
tuning, 51, 0.004444518126547337
tuning, 52, 0.004382467363029718
tuning, 53, 0.004323497414588928
tuning, 54, 0.004267415963113308
tuning, 55, 0.00421366048976779
tuning, 56, 0.004162640310823917
tuning, 57, 0.004113562870770693
tuning, 58, 0.00406623212620616
tuning, 59, 0.004020204301923513
tuning, 60, 0.003975377418100834
tuning, 61, 0.003931422717869282
tuning, 62, 0.0038885935209691525
tuning, 63, 0.0038465256802737713
tuning, 64, 0.003805615706369281
tuning, 65, 0.003765542060136795
tuning, 66, 0.0037263333797454834
tuning, 67, 0.003688411321491003
tuning, 68, 0.0036517027765512466
tuning, 69, 0.003615805646404624
tuning, 70, 0.0035809846594929695
tuning, 71, 0.0035473210737109184
tuning, 72, 0.0035147015005350113
tuning, 73, 0.003482742002233863
tuning, 74, 0.0034516628365963697
tuning, 75, 0.0034215308260172606
tuning, 76, 0.0033920491114258766
tuning, 77, 0.003363177878782153
tuning, 78, 0.0033352654427289963
tuning, 79, 0.0033079495187848806
tuning, 80, 0.003281459677964449
tuning, 81, 0.003255567280575633
tuning, 82, 0.0032301689498126507
tuning, 83, 0.003205336630344391
tuning, 84, 0.003181095700711012
tuning, 85, 0.003157449886202812
tuning, 86, 0.003134231548756361
tuning, 87, 0.0031114197336137295
tuning, 88, 0.0030892598442733288
tuning, 89, 0.0030676485039293766
tuning, 90, 0.0030463081784546375
tuning, 91, 0.0030254703015089035
tuning, 92, 0.003005007980391383
tuning, 93, 0.0029850953724235296
tuning, 94, 0.002965521765872836
tuning, 95, 0.0029462657403200865
tuning, 96, 0.0029274197295308113
tuning, 97, 0.002908918773755431
tuning, 98, 0.002890596631914377
tuning, 99, 0.0028727524913847446
tuning, 100, 0.002854895545169711
tuning, 101, 0.0028377529233694077
tuning, 102, 0.002820502733811736
tuning, 103, 0.0028035666327923536
tuning, 104, 0.002786732744425535
tuning, 105, 0.0027700706850737333
tuning, 106, 0.002753873122856021
tuning, 107, 0.0027377165388315916
tuning, 108, 0.0027218058239668608
tuning, 109, 0.0027060245629400015
tuning, 110, 0.0026906300336122513
tuning, 111, 0.0026753596030175686
tuning, 112, 0.0026602004654705524
tuning, 113, 0.0026453575119376183
tuning, 114, 0.0026306002400815487
tuning, 115, 0.002616224577650428
tuning, 116, 0.002601835411041975
tuning, 117, 0.002587823197245598
tuning, 118, 0.0025738116819411516
tuning, 119, 0.002560132648795843
tuning, 120, 0.002546558389440179
tuning, 121, 0.002533120568841696
tuning, 122, 0.0025198429357260466
tuning, 123, 0.002506796969100833
tuning, 124, 0.0024938397109508514
tuning, 125, 0.0024811606854200363
tuning, 126, 0.0024684127420186996
tuning, 127, 0.002456000307574868
tuning, 128, 0.002443743171170354
tuning, 129, 0.0024314611218869686
tuning, 130, 0.0024193902499973774
tuning, 131, 0.0024073247332125902
tuning, 132, 0.002395574003458023
tuning, 133, 0.0023836963810026646
tuning, 134, 0.0023719994351267815
tuning, 135, 0.002360627055168152
tuning, 136, 0.0023492048494517803
tuning, 137, 0.0023379032500088215
tuning, 138, 0.0023267529904842377
tuning, 139, 0.002315668622031808
tuning, 140, 0.0023047595750540495
tuning, 141, 0.0022938516922295094
tuning, 142, 0.0022830343805253506
tuning, 143, 0.0022724755108356476
tuning, 144, 0.002261810703203082
tuning, 145, 0.002251364989206195
tuning, 146, 0.0022410601377487183
tuning, 147, 0.0022307299077510834
tuning, 148, 0.0022204944398254156
tuning, 149, 0.0022103809751570225
tuning, 150, 0.002200370654463768
tuning, 151, 0.0021903610322624445
tuning, 152, 0.0021805576980113983
tuning, 153, 0.002170592313632369
tuning, 154, 0.0021609587129205465
tuning, 155, 0.002151368884369731
tuning, 156, 0.0021417972166091204
tuning, 157, 0.002132217399775982
tuning, 158, 0.0021227924153208733
tuning, 159, 0.0021134186536073685
tuning, 160, 0.0021040989086031914
tuning, 161, 0.00209478079341352
tuning, 162, 0.0020855912007391453
tuning, 163, 0.0020764037035405636
tuning, 164, 0.00206734542734921
tuning, 165, 0.0020582545548677444
tuning, 166, 0.0020493040792644024
tuning, 167, 0.0020403899252414703
tuning, 168, 0.0020315893925726414
tuning, 169, 0.0020227585919201374
tuning, 170, 0.002013928722590208
tuning, 171, 0.00200515054166317
tuning, 172, 0.001996563281863928
tuning, 173, 0.001987888477742672
tuning, 174, 0.0019792490638792515
tuning, 175, 0.0019708219915628433
tuning, 176, 0.0019622116815298796
tuning, 177, 0.0019538213964551687
tuning, 178, 0.001945632859133184
tuning, 179, 0.0019372450187802315
tuning, 180, 0.0019290789496153593
tuning, 181, 0.0019207505974918604
tuning, 182, 0.001912562525831163
tuning, 183, 0.0019044477958232164
tuning, 184, 0.0018962956964969635
tuning, 185, 0.0018881848081946373
tuning, 186, 0.0018801214173436165
tuning, 187, 0.0018722342792898417
tuning, 188, 0.0018642194336280227
tuning, 189, 0.0018562814220786095
tuning, 190, 0.0018484147731214762
tuning, 191, 0.0018405914306640625
tuning, 192, 0.0018327258294448256
tuning, 193, 0.0018248618580400944
tuning, 194, 0.0018171870615333319
tuning, 195, 0.0018094716360792518
tuning, 196, 0.0018017422407865524
tuning, 197, 0.0017941510304808617
tuning, 198, 0.0017864828696474433
tuning, 199, 0.0017788680270314217
inversion time : 93.93873715400696

 20%|██████████████████████▏                                                                                        | 2/10 [03:10<12:42, 95.26s/it]
1, 0.09775816649198532
2, 0.09261526167392731
3, 0.08272577822208405
4, 0.06901431083679199
5, 0.05310666188597679
6, 0.03751775249838829
7, 0.026812350377440453
8, 0.02019200287759304
9, 0.0163106732070446
10, 0.013978364877402782
11, 0.012414759024977684
12, 0.011198312044143677
13, 0.010139182209968567
14, 0.009172914549708366
15, 0.008289537392556667
16, 0.0074926684610545635
17, 0.0067857108078897
18, 0.006165632512420416
19, 0.005626062862575054
20, 0.005160215310752392
21, 0.004760618321597576
22, 0.0044207097962498665
23, 0.004133254289627075
24, 0.0038911793380975723
25, 0.003687359159812331
26, 0.0035153503995388746
27, 0.003369451966136694
28, 0.0032451904844492674
29, 0.003139254404231906
30, 0.0030488385818898678
31, 0.002972440328449011
32, 0.0029086489230394363
33, 0.002856457605957985
34, 0.0028151902370154858
35, 0.0027835890650749207
36, 0.002760939300060272
37, 0.0027458276599645615
38, 0.002737057860940695
39, 0.0027330629527568817
0 2.673685312271118 0.05 8.745222091674805
1 2.511704921722412 0.05 7.71769380569458
2 2.3432772159576416 0.05 6.717343807220459
3 2.083343029022217 0.05 5.309722900390625
4 1.7154488563537598 0.05 3.6000280380249023
5 1.2680132389068604 0.05 1.966970682144165
6 0.9089130759239197 0.05 1.010636568069458
7 0.6684738397598267 0.05 0.5466622114181519
8 0.5329509973526001 0.05 0.3474760055541992
9 0.4496026337146759 0.05 0.24729080498218536
tuning, 0, 0.01388404332101345
tuning, 1, 0.01213701069355011
tuning, 2, 0.010964344255626202
tuning, 3, 0.010088711977005005
tuning, 4, 0.009359504096210003
tuning, 5, 0.008714407682418823
tuning, 6, 0.008130721747875214
tuning, 7, 0.007601486053317785
tuning, 8, 0.00712200440466404
tuning, 9, 0.006689544767141342
tuning, 10, 0.006300135515630245
tuning, 11, 0.005951152183115482
tuning, 12, 0.005637084133923054
tuning, 13, 0.005350541323423386
tuning, 14, 0.0050816466100513935
tuning, 15, 0.004825521260499954
tuning, 16, 0.004579872824251652
tuning, 17, 0.004344123415648937
tuning, 18, 0.004121638834476471
tuning, 19, 0.003915288019925356
tuning, 20, 0.003725555492565036
tuning, 21, 0.0035517504438757896
tuning, 22, 0.0033923531882464886
tuning, 23, 0.0032452265731990337
tuning, 24, 0.0031079126056283712
tuning, 25, 0.002979446202516556
tuning, 26, 0.002860376611351967
tuning, 27, 0.0027483031153678894
tuning, 28, 0.0026435970794409513
tuning, 29, 0.0025459241587668657
tuning, 30, 0.0024527525529265404
tuning, 31, 0.0023636415135115385
tuning, 32, 0.0022781286388635635
tuning, 33, 0.0021960886660963297
tuning, 34, 0.002118815667927265
tuning, 35, 0.002046873327344656
tuning, 36, 0.0019809850491583347
tuning, 37, 0.0019205575808882713
tuning, 38, 0.0018651154823601246
tuning, 39, 0.0018134277779608965
tuning, 40, 0.0017645813059061766
tuning, 41, 0.001717299921438098
tuning, 42, 0.0016711296048015356
tuning, 43, 0.0016259209951385856
tuning, 44, 0.0015813091304153204
tuning, 45, 0.0015382691053673625
tuning, 46, 0.0014968536561354995
