
  0%|                                                                                                                                                                                                                                                                                            | 0/10 [00:00<?, ?it/s]
0, 0.1364392638206482
1, 0.1364392638206482
2, 0.12979236245155334
3, 0.11694793403148651
4, 0.09893621504306793
5, 0.07756029069423676
6, 0.05549616739153862
7, 0.03876934200525284
8, 0.02703273855149746
9, 0.01946830376982689
10, 0.015013489872217178
11, 0.012621271423995495
12, 0.01144164428114891
13, 0.010877018794417381
14, 0.010553345084190369
15, 0.010261221788823605
16, 0.009896524250507355
17, 0.009427672252058983
18, 0.008864403702318668
19, 0.008234743028879166
20, 0.007574108894914389
21, 0.006915032397955656
22, 0.006289700046181679
23, 0.0057245781645178795
24, 0.005234134383499622
25, 0.004822966642677784
26, 0.00448880298063159
27, 0.004223268944770098
28, 0.004013497848063707
29, 0.003844263730570674
30, 0.003700519911944866
31, 0.003569122403860092
32, 0.0034393537789583206
33, 0.003304414451122284
34, 0.0031605204567313194
35, 0.0030070520006120205
36, 0.002845797687768936
37, 0.0026799316983669996
38, 0.0025135460309684277
39, 0.0023508004378527403
40, 0.002195601351559162
41, 0.002051200484856963
42, 0.001919745234772563
43, 0.0018022088333964348
44, 0.0016984891844913363
45, 0.001607550191693008
46, 0.00152791035361588
47, 0.0014575701206922531
48, 0.0013943181838840246
49, 0.0013363672187551856
50, 0.0012820890406146646
51, 0.0012305582640692592
52, 0.0011811705771833658
53, 0.0011337981559336185
54, 0.001088527380488813
55, 0.0010456028394401073
56, 0.0010051990393549204
57, 0.0009675222681835294
58, 0.0009325934806838632
59, 0.0009002738515846431
60, 0.0008702545892447233
61, 0.0008422465762123466
62, 0.0008158382843248546
63, 0.0007907968829385936
64, 0.0007668582256883383
65, 0.0007438407046720386
66, 0.0007216918165795505
67, 0.0007004356011748314
68, 0.0006801369599997997
69, 0.0006608921103179455
70, 0.0006428298074752092
71, 0.0006259384099394083
72, 0.0006102336919866502
73, 0.0005956384120509028
74, 0.0005820745136588812
75, 0.0005694299470633268
76, 0.0005575676332227886
77, 0.0005463913548737764
78, 0.0005357902264222503
79, 0.0005256874719634652
80, 0.0005160136497579515
81, 0.0005067400052212179
82, 0.0004978502402082086
83, 0.0004893483710475266
84, 0.0004812307597603649
85, 0.00047347741201519966
86, 0.00046607147669419646
87, 0.0004590066091623157
88, 0.0004522384551819414
89, 0.00044574434286914766
90, 0.00043953669955953956
91, 0.00043355918023735285
92, 0.0004278122214600444
93, 0.0004222840943839401
94, 0.00041692968807183206
95, 0.00041175991646014154
96, 0.0004067359841428697
97, 0.0004018678446300328
98, 0.0003971476689912379
99, 0.00039256300078704953
100, 0.00038809291436336935
101, 0.00038376657175831497
102, 0.00037957317545078695
103, 0.0003755165671464056
104, 0.0003715654311235994
105, 0.00036774168256670237
106, 0.0003640356007963419
107, 0.0003604283556342125
108, 0.0003569123800843954
109, 0.0003534650313667953
110, 0.0003501072060316801
111, 0.0003468244685791433
112, 0.0003436148981563747
113, 0.0003404706949368119
114, 0.0003373956715222448
115, 0.00033440080005675554
116, 0.00033146823989227414
117, 0.00032859956263564527
118, 0.00032580734114162624
119, 0.0003230661095585674
120, 0.00032037298660725355
121, 0.0003177475300617516
122, 0.0003151586279273033
123, 0.0003126261290162802
124, 0.0003101414768025279
125, 0.0003077028086408973
126, 0.00030530779622495174
127, 0.00030296051409095526
128, 0.0003006559854838997
129, 0.0002983929880429059
130, 0.00029617553809657693
131, 0.000293999066343531
132, 0.0002918837417382747
133, 0.00028977892361581326
134, 0.00028771997313015163
135, 0.00028568838024511933
136, 0.00028370076324790716
137, 0.0002817368949763477
138, 0.0002798230270855129
139, 0.0002779336355160922
140, 0.00027607576339505613
141, 0.0002742490905802697
142, 0.00027245498495176435
143, 0.000270690827164799
144, 0.0002689589455258101
145, 0.00026724315830506384
146, 0.00026556759257800877
147, 0.00026391795836389065
148, 0.00026230834191665053
149, 0.00026070442982017994
150, 0.0002591359370853752
151, 0.0002575867110863328
152, 0.0002560726134106517
153, 0.0002545712632127106
154, 0.00025310085038654506
155, 0.00025164749240502715
156, 0.00025021747569553554
157, 0.00024880445562303066
158, 0.0002474160282872617
159, 0.00024604445206932724
160, 0.0002446850703563541
161, 0.00024334725458174944
162, 0.000242027104832232
163, 0.00024071596271824092
164, 0.00023942682310007513
165, 0.0002381482336204499
166, 0.00023688870714977384
167, 0.00023564188450109214
168, 0.00023439931101165712
169, 0.00023317913291975856
170, 0.00023196368420030922
171, 0.0002307705581188202
172, 0.00022957938199397177
173, 0.00022840830206405371
174, 0.00022724240261595696
175, 0.00022608242579735816
176, 0.0002249410463264212
177, 0.00022379557776730508
178, 0.00022266960877459496
179, 0.0002215381828136742
180, 0.00022042810451239347
181, 0.000219339708564803
182, 0.0002182741736760363
183, 0.00021722138626500964
184, 0.0002161748125217855
185, 0.00021514363470487297
186, 0.0002141204895451665
187, 0.00021312199532985687
188, 0.0002121294237440452
189, 0.0002111413050442934
190, 0.00021017319522798061
191, 0.00020921797840856016
192, 0.0002082674764096737
193, 0.00020734069403260946
194, 0.00020643186871893704
195, 0.00020552935893647373
196, 0.0002046505396720022
197, 0.0002037674858001992
198, 0.0002029115566983819
199, 0.00020205636974424124
200, 0.00020120784756727517
201, 0.00020038294314872473
202, 0.0001995650090975687
203, 0.0001987541763810441
204, 0.0001979562221094966
205, 0.00019716820679605007
206, 0.0001963944232556969
207, 0.00019563082605600357
208, 0.000194867723621428
209, 0.0001941217778949067
210, 0.0001933783496497199
211, 0.00019265120499767363
212, 0.00019194073684047908
213, 0.00019122706726193428
214, 0.00019052621792070568
215, 0.00018983366317115724
216, 0.00018915497639682144
217, 0.0001884731464087963
218, 0.0001878062030300498
219, 0.00018714996986091137
220, 0.00018650034326128662
221, 0.0001858570904005319
222, 0.00018521689344197512
223, 0.00018459808779880404
224, 0.00018398409883957356
225, 0.0001833712449297309
226, 0.00018276995979249477
227, 0.00018217950128018856
228, 0.0001815997966332361
229, 0.00018101566820405424
230, 0.00018044647003989667
231, 0.00017988833133131266
232, 0.00017933027993422002
233, 0.00017878031940199435
234, 0.00017823603411670774
235, 0.0001776995341060683
236, 0.00017716809816192836
237, 0.0001766432833392173
238, 0.00017612564261071384
239, 0.0001756059064064175
240, 0.00017510339966975152
241, 0.00017460528761148453
242, 0.00017410788859706372
243, 0.00017361283244099468
244, 0.00017312906857114285
245, 0.00017265751375816762
246, 0.00017218331049662083
247, 0.00017171050421893597
248, 0.0001712574012344703
249, 0.00017079389363061637
250, 0.00017033812764566392
251, 0.00016989122377708554
252, 0.00016945191600825638
253, 0.000169011065736413
254, 0.0001685803581494838
255, 0.00016815040726214647
256, 0.00016772570961620659
257, 0.00016730399511288851
258, 0.00016689204494468868
259, 0.00016647156735416502
260, 0.00016606759163551033
261, 0.00016566042904742062
262, 0.0001652667997404933
263, 0.00016487017273902893
264, 0.0001644786971155554
265, 0.0001640998525545001
266, 0.00016371242236346006
267, 0.00016333229723386467
268, 0.0001629614271223545
269, 0.00016257660172414035
270, 0.00016222205886151642
271, 0.00016185961430892348
272, 0.00016149121802300215
273, 0.000161132455104962
274, 0.0001607919402886182
275, 0.00016043384675867856
276, 0.00016008556121960282
277, 0.00015975255519151688
278, 0.00015940841694828123
279, 0.00015906906628515571
280, 0.0001587376173119992
281, 0.00015841270214878023
282, 0.000158086942974478
283, 0.00015776065993122756
284, 0.00015743827680125833
285, 0.00015712992171756923
286, 0.00015681330114603043
287, 0.0001564989215694368
288, 0.00015618986799381673
289, 0.00015588509268127382
290, 0.0001555889321025461
291, 0.00015528440417256206
292, 0.00015499090659432113
293, 0.00015468921628780663
294, 0.0001543941762065515
295, 0.00015410520427394658
296, 0.00015381640696432441
297, 0.00015353263006545603
298, 0.0001532474998384714
299, 0.00015296731726266444
300, 0.00015268824063241482
301, 0.00015241418441291898
302, 0.0001521403610240668
303, 0.00015185814118012786
304, 0.00015158855239860713
305, 0.000151325628394261
306, 0.0001510532747488469
307, 0.00015078624710440636
308, 0.00015051974332891405
309, 0.00015026412438601255
310, 0.00014998848200775683
311, 0.0001497383345849812
312, 0.0001494725001975894
313, 0.00014921301044523716
314, 0.00014895619824528694
315, 0.0001486991241108626
316, 0.00014844274846836925
317, 0.0001481859799241647
318, 0.0001479314232710749
319, 0.0001476762699894607
320, 0.0001474139280617237
321, 0.000147158614709042
322, 0.00014690340321976691
323, 0.00014664808986708522
324, 0.00014639818982686847
325, 0.00014615178224630654
326, 0.00014590361388400197
327, 0.0001456605677958578
328, 0.00014542340068146586
329, 0.00014517537783831358
330, 0.00014493518392555416
331, 0.00014470548194367439
332, 0.00014446389104705304
333, 0.00014423095853999257
334, 0.0001439966436009854
335, 0.00014376446779351681
336, 0.00014353252481669188
337, 0.00014330683916341513
338, 0.00014308773097582161
339, 0.00014286921941675246
340, 0.000142646546009928
341, 0.00014243209443520755
342, 0.00014222643221728504
343, 0.00014202084275893867
344, 0.0001418135652784258
345, 0.00014160893624648452
346, 0.0001414183061569929
347, 0.00014122173888608813
348, 0.00014102479326538742
349, 0.0001408412354066968
350, 0.00014065729919821024
351, 0.0001404835347784683
352, 0.0001403043861500919
353, 0.00014013395411893725
354, 0.0001399640750605613
355, 0.00013980604126118124
356, 0.00013963461969979107
357, 0.00013948144624009728
358, 0.00013931274588685483
359, 0.00013916008174419403
360, 0.00013900990597903728
361, 0.00013886259694118053
362, 0.00013871132978238165
363, 0.00013857088924851269
364, 0.00013842516636941582
365, 0.00013828463852405548
366, 0.00013814894191455096
367, 0.00013801726163364947
368, 0.0001378782035317272
369, 0.00013774573744740337
370, 0.00013761667651124299
371, 0.00013748742640018463
372, 0.0001373663981212303
373, 0.00013723495067097247
374, 0.00013711262727156281
375, 0.00013699676492251456
376, 0.00013687995669897646
377, 0.00013676339585799724
378, 0.00013665619189850986
379, 0.00013653814676217735
380, 0.0001364378840662539
381, 0.00013633223716169596
382, 0.00013621622929349542
383, 0.00013611221220344305
384, 0.000136010508867912
385, 0.00013590857270173728
386, 0.00013581104576587677
387, 0.00013571526505984366
388, 0.00013562390813603997
389, 0.00013552451855503023
390, 0.00013543351087719202
391, 0.000135342706926167
392, 0.00013525248505175114
393, 0.00013516974286176264
394, 0.00013508580741472542
395, 0.00013499973283614963
396, 0.00013491472054738551
397, 0.0001348261721432209
398, 0.00013475207379087806
399, 0.00013467579265125096
400, 0.0001345997443422675
401, 0.00013453139399643987
402, 0.00013445326476357877
403, 0.00013437865709420294
404, 0.00013430282706394792
405, 0.00013423401105683297
406, 0.00013417244190350175
407, 0.00013410739484243095
408, 0.0001340394956059754
409, 0.00013397283328231424
410, 0.00013391254469752312
411, 0.00013384921476244926
412, 0.00013379252050071955
413, 0.0001337333960691467
414, 0.00013367581414058805
415, 0.0001336189016001299
416, 0.00013356271665543318
417, 0.00013351909001357853
418, 0.00013346468040253967
419, 0.00013341402518562973
420, 0.00013336515985429287
421, 0.0001333132677245885
422, 0.00013326649786904454
423, 0.00013322103768587112
424, 0.00013317354023456573
425, 0.00013312959345057607
426, 0.00013308817869983613
427, 0.0001330416853306815
428, 0.00013300415594130754
429, 0.00013296805263962597
430, 0.0001329284714302048
431, 0.00013289190246723592
432, 0.0001328526413999498
433, 0.00013281770225148648
434, 0.00013278673577588052
435, 0.00013275300443638116
436, 0.00013272237265482545
437, 0.0001326890487689525
438, 0.0001326577621512115
439, 0.00013262813445180655
440, 0.00013260186824481934
441, 0.00013257037790026516
442, 0.00013254288933239877
443, 0.0001325195044046268
444, 0.0001324922777712345
445, 0.00013247037713881582
446, 0.00013244683213997632
447, 0.00013242624117992818
448, 0.0001324027543887496
449, 0.0001323749456787482
450, 0.00013235840015113354
451, 0.00013233913341537118
452, 0.00013232055061962456
453, 0.00013230188051238656
454, 0.00013228249736130238
455, 0.00013226873124949634
456, 0.0001322554744547233
457, 0.0001322315656580031
458, 0.00013221650442574173
459, 0.00013220692926552147
460, 0.00013219533138908446
461, 0.00013218287494964898
462, 0.00013217137893661857
463, 0.00013215577928349376
464, 0.00013214866339694709
465, 0.00013213792408350855
466, 0.00013212859630584717
467, 0.00013211820623837411
468, 0.00013211379700805992
469, 0.00013210211182013154
470, 0.00013209300232119858
471, 0.00013208836026024073
472, 0.00013208261225372553
473, 0.00013207149459049106
474, 0.00013206536823417991
475, 0.000132062123157084
476, 0.0001320569426752627
477, 0.00013205234427005053
478, 0.0001320481242146343
479, 0.0001320409937761724
480, 0.0001320431474596262
481, 0.00013204014976508915
482, 0.00013203741400502622
483, 0.0001320306328125298
484, 0.00013203029811847955
485, 0.00013202839181758463
486, 0.0001320220617344603
487, 0.00013202434638515115
488, 0.00013202322588767856
489, 0.00013201983529143035
490, 0.00013201643014326692
491, 0.00013202158152125776
492, 0.00013201564433984458
493, 0.0001320196024607867
494, 0.00013201501860748976
495, 0.00013201797264628112
496, 0.00013201517867855728
497, 0.0001320183218922466
498, 0.00013201506226323545
499, 0.00013201461115386337
0 2.6236159801483154 0.05 7.881294250488281
1 2.4626858234405518 0.05 6.944085121154785
2 2.293919801712036 0.05 6.02495002746582
3 2.093679189682007 0.05 5.0190019607543945
4 1.8243016004562378 0.05 3.810572862625122
5 1.427916169166565 0.05 2.3345460891723633
6 0.9878623485565186 0.05 1.1173515319824219
7 0.6630450487136841 0.05 0.5033650398254395
8 0.5336265563964844 0.05 0.32604074478149414
9 0.4436136484146118 0.05 0.2253236472606659
10 0.3746851980686188 0.05 0.16074228286743164
11 0.3249947130680084 0.05 0.12093433737754822
12 0.2857670187950134 0.05 0.09350205957889557
13 0.25392892956733704 0.05 0.07382804155349731
14 0.22851508855819702 0.05 0.059789758175611496
15 0.20853191614151 0.05 0.049789994955062866
16 0.1926233321428299 0.05 0.04248295724391937
17 0.17964157462120056 0.05 0.03694968298077583
18 0.16875404119491577 0.05 0.0326065868139267
19 0.15939290821552277 0.05 0.029089417308568954
20 0.15122362971305847 0.05 0.026184016838669777
21 0.14397604763507843 0.05 0.023734360933303833
22 0.13748317956924438 0.05 0.021641938015818596
23 0.1316053420305252 0.05 0.0198309738188982
24 0.12624506652355194 0.05 0.01824844628572464
25 0.12132517993450165 0.05 0.01685383915901184
26 0.1168007031083107 0.05 0.015620248392224312
27 0.11260795593261719 0.05 0.014518948271870613
28 0.10871146619319916 0.05 0.013531556352972984
29 0.10509103536605835 0.05 0.012645276263356209
30 0.10169226676225662 0.05 0.0118405781686306
31 0.09851599484682083 0.05 0.01111246645450592
32 0.09551963955163956 0.05 0.010446777567267418
33 0.09270313382148743 0.05 0.009839791804552078
34 0.09002799540758133 0.05 0.009280089288949966
35 0.08750057965517044 0.05 0.008766351267695427
36 0.08510257303714752 0.05 0.008292442187666893
37 0.0828206017613411 0.05 0.007853690534830093
38 0.08064935356378555 0.05 0.007447299547493458
39 0.07855549454689026 0.05 0.007065617013722658
40 0.0765785425901413 0.05 0.006714462302625179
41 0.07467139512300491 0.05 0.0063841864466667175
42 0.07283713668584824 0.05 0.006074391305446625
43 0.07108037918806076 0.05 0.00578490924090147
44 0.06939303129911423 0.05 0.005513517186045647
45 0.06776972115039825 0.05 0.005258578807115555
46 0.0662039965391159 0.05 0.005018401890993118
47 0.06467880308628082 0.05 0.004789839498698711
48 0.06321917474269867 0.05 0.004576090723276138
49 0.06180500239133835 0.05 0.004373652394860983
50 0.060432422906160355 0.05 0.0041815475560724735
51 0.059113986790180206 0.05 0.004001082852482796
52 0.05783377215266228 0.05 0.0038296584971249104
53 0.05658556520938873 0.05 0.003666133852675557
54 0.05539364740252495 0.05 0.0035133138298988342
55 0.05422288179397583 0.05 0.003366372548043728
56 0.053099993616342545 0.05 0.003228389658033848
57 0.05198921263217926 0.05 0.003094735322520137
58 0.05092823505401611 0.05 0.0029697115533053875
59 0.049889203161001205 0.05 0.0028497723396867514
60 0.04888496920466423 0.05 0.0027361989486962557
61 0.04791656509041786 0.05 0.0026288656517863274
62 0.04695413261651993 0.05 0.0025243214331567287
63 0.046030543744564056 0.05 0.002425991464406252
64 0.045139700174331665 0.05 0.0023329979740083218
65 0.04426571726799011 0.05 0.002243530936539173
66 0.043411217629909515 0.05 0.002157749142497778
67 0.04258856177330017 0.05 0.0020767441019415855
68 0.04178120195865631 0.05 0.001998751889914274
69 0.0410015806555748 0.05 0.0019248556345701218
70 0.04023750126361847 0.05 0.001853783382102847
71 0.03948211297392845 0.05 0.0017848340794444084
72 0.03876560181379318 0.05 0.0017206403426826
73 0.03805273771286011 0.05 0.0016579399816691875
74 0.03736964240670204 0.05 0.0015989502426236868
75 0.03670123592019081 0.05 0.0015422626165673137
76 0.036032162606716156 0.05 0.0014865437988191843
77 0.03541130572557449 0.05 0.0014357566833496094
78 0.034771841019392014 0.05 0.001384370494633913
79 0.03417760506272316 0.05 0.0013374583795666695
80 0.03357265889644623 0.05 0.0012905308976769447
81 0.0329987034201622 0.05 0.0012467827182263136
82 0.03244242072105408 0.05 0.0012051011435687542
83 0.031872306019067764 0.05 0.0011631185188889503
84 0.031352970749139786 0.05 0.0011255232384428382
85 0.030810309574007988 0.05 0.001086898846551776
86 0.0302981436252594 0.05 0.0010510638821870089
87 0.029793530702590942 0.05 0.0010163445258513093
88 0.02930811047554016 0.05 0.0009834961965680122
89 0.028820481151342392 0.05 0.000951041467487812
90 0.0283510684967041 0.05 0.0009203137014992535
91 0.027895603328943253 0.05 0.0008909811731427908
92 0.027445469051599503 0.05 0.0008624587208032608
93 0.027008414268493652 0.05 0.0008352090953849256
94 0.026575423777103424 0.05 0.0008086441084742546
95 0.026153085753321648 0.05 0.000783146359026432
96 0.025751490145921707 0.05 0.0007592797046527267
97 0.02533729374408722 0.05 0.0007350509986281395
98 0.02494935505092144 0.05 0.0007127146236598492
99 0.024557793512940407 0.05 0.0006905191112309694
100 0.02419138513505459 0.05 0.0006700674421153963
101 0.023809364065527916 0.05 0.000649071647785604
102 0.023452630266547203 0.05 0.0006297673098742962
103 0.023094799369573593 0.05 0.0006106965010985732
104 0.022753797471523285 0.05 0.0005927953170612454
105 0.022405248135328293 0.05 0.0005747731775045395
106 0.022070610895752907 0.05 0.0005577321862801909
107 0.021759139373898506 0.05 0.0005421012174338102
108 0.021424807608127594 0.05 0.0005255703581497073
109 0.021121656522154808 0.05 0.0005108024924993515
110 0.020801961421966553 0.05 0.000495456566568464
111 0.02050798572599888 0.05 0.0004815517459064722
112 0.020202387124300003 0.05 0.00046730716712772846
113 0.019918661564588547 0.05 0.0004542734823189676
114 0.01963355578482151 0.05 0.00044136197539046407
115 0.01934989169239998 0.05 0.0004287006740923971
116 0.019075576215982437 0.05 0.00041663169395178556
117 0.018802285194396973 0.05 0.0004047792754136026
118 0.018552472814917564 0.05 0.00039409470628015697
119 0.018283557146787643 0.05 0.000382752827135846
120 0.018034493550658226 0.05 0.0003723959089256823
121 0.017787333577871323 0.05 0.0003622586082201451
122 0.01753360778093338 0.05 0.00035199744161218405
