
  0%|                                                                                                                                                                                                                                                                                                           | 0/10 [00:00<?, ?it/s]
0, 0.1364392638206482
1, 0.1364392638206482
2, 0.12979237735271454
3, 0.1169479489326477
4, 0.09893612563610077
5, 0.0775601863861084
6, 0.05549614876508713
7, 0.038769204169511795
8, 0.02703244984149933
9, 0.019467707723379135
10, 0.015012815594673157
11, 0.012620778754353523
12, 0.01144145242869854
13, 0.010877269320189953
14, 0.010554126463830471
15, 0.01026243343949318
16, 0.009898186661303043
17, 0.00942940078675747
18, 0.008866149932146072
19, 0.008236228488385677
20, 0.00757558410987258
21, 0.006916163023561239
22, 0.006290563382208347
23, 0.005725495517253876
24, 0.005235067568719387
25, 0.004824629984796047
26, 0.004491183906793594
27, 0.004226330202072859
28, 0.004017358645796776
29, 0.00384878134354949
30, 0.0037056650035083294
31, 0.0035744155757129192
32, 0.0034450292587280273
33, 0.0033097106497734785
34, 0.0031653810292482376
35, 0.003011327236890793
36, 0.002849220298230648
37, 0.0026825338136404753
38, 0.002515269909054041
39, 0.002351716160774231
40, 0.0021959850564599037
41, 0.0020512910559773445
42, 0.0019197333604097366
43, 0.0018021208234131336
44, 0.0016985742840915918
45, 0.0016079193446785212
46, 0.0015284770634025335
47, 0.0014583170413970947
48, 0.001395203173160553
49, 0.0013372026151046157
50, 0.0012828781036660075
51, 0.0012311250902712345
52, 0.0011814706958830357
53, 0.0011338618351146579
54, 0.0010883617214858532
55, 0.0010451388079673052
56, 0.0010045180097222328
57, 0.000966796069405973
58, 0.000931806571315974
59, 0.0008994285017251968
60, 0.000869309704285115
61, 0.0008411434246227145
62, 0.0008146059117279947
63, 0.0007893306901678443
64, 0.000765141739975661
65, 0.0007418451714329422
66, 0.0007194111822172999
67, 0.0006979127647355199
68, 0.000677403062582016
69, 0.0006580236367881298
70, 0.0006398286204785109
71, 0.0006228605634532869
72, 0.0006071488605812192
73, 0.0005925611476413906
74, 0.0005790138384327292
75, 0.0005663699121214449
76, 0.0005544780287891626
77, 0.000543265778105706
78, 0.0005325975362211466
79, 0.0005224263295531273
80, 0.0005126397591084242
81, 0.0005032971384935081
82, 0.0004943387466482818
83, 0.00048575535765849054
84, 0.00047756993444636464
85, 0.00046976906014606357
86, 0.00046233105240389705
87, 0.00045520137064158916
88, 0.00044837393215857446
89, 0.0004418322059791535
90, 0.0004355597775429487
91, 0.00042953056981787086
92, 0.0004237284301780164
93, 0.0004181118856649846
94, 0.00041269155917689204
95, 0.0004074367170687765
96, 0.00040232366882264614
97, 0.000397384021198377
98, 0.00039256023592315614
99, 0.0003878882562275976
100, 0.0003833539958577603
101, 0.0003789507900364697
102, 0.0003746957518160343
103, 0.0003705663839355111
104, 0.00036657461896538734
105, 0.00036268256371840835
106, 0.000358904420863837
107, 0.0003552127745933831
108, 0.00035160905099473894
109, 0.00034808096825145185
110, 0.00034461566247045994
111, 0.0003412522783037275
112, 0.00033794209593907
113, 0.00033472763607278466
114, 0.00033156771678477526
115, 0.0003284818376414478
116, 0.00032548647141084075
117, 0.00032253694371320307
118, 0.00031965499510988593
119, 0.0003168245020788163
120, 0.00031404185574501753
121, 0.00031132562435232103
122, 0.00030864778091199696
123, 0.0003060217131860554
124, 0.00030344969127327204
125, 0.00030092126689851284
126, 0.00029845215613022447
127, 0.00029602315044030547
128, 0.0002936366363428533
129, 0.00029129680478945374
130, 0.0002890033647418022
131, 0.00028673728229478
132, 0.0002845119161065668
133, 0.0002823303802870214
134, 0.00028018016018904746
135, 0.0002780710638035089
136, 0.00027600102475844324
137, 0.0002739702758844942
138, 0.00027195835718885064
139, 0.000269983516773209
140, 0.0002680487814359367
141, 0.0002661461476236582
142, 0.0002642677864059806
143, 0.0002624223125167191
144, 0.00026062288088724017
145, 0.00025883139460347593
146, 0.00025708420434966683
147, 0.0002553635276854038
148, 0.0002536562387831509
149, 0.00025198099319823086
150, 0.0002503303694538772
151, 0.00024869933258742094
152, 0.0002470964100211859
153, 0.000245514209382236
154, 0.0002439520030748099
155, 0.00024240741913672537
156, 0.00024088338250294328
157, 0.0002393790491623804
158, 0.00023788140970282257
159, 0.00023640270228497684
160, 0.00023493611661251634
161, 0.00023348645481746644
162, 0.00023205284378491342
163, 0.00023062375839799643
164, 0.0002292078861501068
165, 0.000227800861466676
166, 0.0002263968053739518
167, 0.00022501451894640923
168, 0.00022362473828252405
169, 0.00022225268185138702
170, 0.0002208906225860119
171, 0.00021955404372420162
172, 0.00021824466239195317
173, 0.00021694220777135342
174, 0.00021565242786891758
175, 0.00021437816030811518
176, 0.00021311599994078279
177, 0.00021187016682233661
178, 0.00021063550957478583
179, 0.00020941250841133296
180, 0.00020819510973524302
181, 0.000207016448257491
182, 0.0002058434038190171
183, 0.0002046966546913609
184, 0.0002035620855167508
185, 0.00020244240295141935
186, 0.00020133319776505232
187, 0.00020024552941322327
188, 0.0001991648314287886
189, 0.000198102934518829
190, 0.0001970502780750394
191, 0.0001959989167517051
192, 0.00019497817265801132
193, 0.00019396652351133525
194, 0.0001929604186443612
195, 0.00019197729125153273
196, 0.0001910030550789088
197, 0.00019003833585884422
198, 0.00018907865160144866
199, 0.000188140882528387
200, 0.00018721295055001974
201, 0.00018629110127221793
202, 0.00018538546282798052
203, 0.0001844951038947329
204, 0.00018361720140092075
205, 0.00018274043395649642
206, 0.00018188226385973394
207, 0.00018103820912074298
208, 0.00018020239076577127
209, 0.00017937517259269953
210, 0.00017856105114333332
211, 0.00017775030573830009
212, 0.00017695073620416224
213, 0.0001761597814038396
214, 0.0001753864053171128
215, 0.00017460346862208098
216, 0.00017384611419402063
217, 0.00017308587848674506
218, 0.00017234828555956483
219, 0.00017160727293230593
220, 0.0001708676281850785
221, 0.00017014396144077182
222, 0.00016942445654422045
223, 0.00016871413390617818
224, 0.00016800306912045926
225, 0.0001673099905019626
226, 0.00016661404515616596
227, 0.0001659237314015627
228, 0.00016525364480912685
229, 0.00016456755110993981
230, 0.0001638989197090268
231, 0.0001632345374673605
232, 0.00016257568495348096
233, 0.00016192474868148565
234, 0.0001612790219951421
235, 0.00016063790826592594
236, 0.0001599999377503991
237, 0.00015936470299493521
238, 0.00015874000382609665
239, 0.00015812004858162254
240, 0.0001574937632540241
241, 0.00015687527775298804
242, 0.00015625984815414995
243, 0.00015565227658953518
244, 0.00015503971371799707
245, 0.0001544407568871975
246, 0.0001538335345685482
247, 0.00015322973194997758
248, 0.000152625230839476
249, 0.0001520289370091632
250, 0.0001514343312010169
251, 0.00015082980098668486
252, 0.00015022771549411118
253, 0.00014962565910536796
254, 0.0001490108552388847
255, 0.00014839913637842983
256, 0.0001477771147619933
257, 0.00014714832650497556
258, 0.00014651563833467662
259, 0.0001458719780202955
260, 0.00014524022117257118
261, 0.000144614081364125
262, 0.0001439940242562443
263, 0.0001433693541912362
264, 0.00014274577551987022
265, 0.000142131102620624
266, 0.00014152075164020061
267, 0.00014091502816881984
268, 0.00014031282626092434
269, 0.00013971379667054862
270, 0.00013913167640566826
271, 0.0001385481737088412
272, 0.00013798079453408718
273, 0.00013742945156991482
274, 0.00013687732280232012
275, 0.00013633424532599747
276, 0.00013580426457338035
277, 0.00013526526163332164
278, 0.00013474207662511617
279, 0.00013422121992334723
280, 0.0001337100111413747
281, 0.00013319899153430015
282, 0.00013269575720187277
283, 0.0001321957679465413
284, 0.00013169948942959309
285, 0.00013121771917212754
286, 0.0001307372294832021
287, 0.0001302568125538528
288, 0.00012979042367078364
289, 0.00012932169192936271
290, 0.0001288612256757915
291, 0.0001283992314711213
292, 0.00012794110807590187
293, 0.00012749715824611485
294, 0.00012704150867648423
295, 0.00012661152868531644
296, 0.00012616586172953248
297, 0.00012572859122883528
298, 0.00012529587547760457
299, 0.00012486844207160175
300, 0.00012444866297300905
301, 0.00012402159336488694
302, 0.00012360165419522673
303, 0.00012319692177698016
304, 0.00012277466885279864
305, 0.00012236906331963837
306, 0.0001219625337398611
307, 0.00012155862350482494
308, 0.00012115550634916872
309, 0.000120758188131731
310, 0.00012036164116580039
311, 0.00011997369438176975
312, 0.00011958228424191475
313, 0.00011919786629732698
314, 0.00011881711543537676
315, 0.00011842651292681694
316, 0.0001180590916192159
317, 0.00011767740215873346
318, 0.0001173025812022388
319, 0.00011692801490426064
320, 0.00011656371498247609
321, 0.00011619441647781059
322, 0.00011583167361095548
323, 0.00011546575115062296
324, 0.00011509993055369705
325, 0.00011474631901364774
326, 0.0001143887493526563
327, 0.00011403294047340751
328, 0.00011368330888217315
329, 0.00011333613656461239
330, 0.00011298630852252245
331, 0.00011264036584179848
332, 0.00011230388190597296
333, 0.00011196284322068095
334, 0.0001116188577725552
335, 0.00011128722690045834
336, 0.00011094976798631251
337, 0.00011062420526286587
338, 0.00011028869630536065
339, 0.0001099625660572201
340, 0.00010963503154926002
341, 0.00010930248390650377
342, 0.00010898655455093831
343, 0.00010866654338315129
344, 0.00010834085696842521
345, 0.00010802135511767119
346, 0.00010770791413960978
347, 0.00010739507706603035
348, 0.00010708547779358923
349, 0.00010677493264665827
350, 0.00010646491864463314
351, 0.00010614628990879282
352, 0.00010584681876935065
353, 0.00010554457549005747
354, 0.00010523123637540266
355, 0.00010493073932593688
356, 0.00010463019134476781
357, 0.00010432809358462691
358, 0.00010402729822089896
359, 0.00010373210534453392
360, 0.0001034353845170699
361, 0.0001031297433655709
362, 0.00010283820301992819
363, 0.00010255068627884611
364, 0.00010224837751593441
365, 0.00010195544746238738
366, 0.00010166194988414645
367, 0.00010136637138202786
368, 0.00010108044079970568
369, 0.00010078167542815208
370, 0.00010049095726571977
371, 0.00010019449837272987
372, 9.989751561079174e-05
373, 9.960455645341426e-05
374, 9.931792737916112e-05
375, 9.901855082716793e-05
376, 9.872731607174501e-05
377, 9.843595034908503e-05
378, 9.814794611884281e-05
379, 9.786165901459754e-05
380, 9.757186489878222e-05
381, 9.728726581670344e-05
382, 9.700162627268583e-05
383, 9.671615407569334e-05
384, 9.643514931667596e-05
385, 9.615760063752532e-05
386, 9.587916429154575e-05
387, 9.56080766627565e-05
388, 9.53319831751287e-05
389, 9.505843627266586e-05
390, 9.478528227191418e-05
391, 9.45150968618691e-05
392, 9.424980089534074e-05
393, 9.397967369295657e-05
394, 9.371461783302948e-05
395, 9.344808495370671e-05
396, 9.31823014980182e-05
397, 9.291940659750253e-05
398, 9.265762491850182e-05
399, 9.239871724275872e-05
400, 9.213479643221945e-05
401, 9.187644900521263e-05
402, 9.161303023574874e-05
403, 9.135226719081402e-05
404, 9.10953531274572e-05
405, 9.083673649001867e-05
406, 9.058050636667758e-05
407, 9.032001253217459e-05
408, 9.00681916391477e-05
409, 8.980879647424445e-05
410, 8.955716475611553e-05
411, 8.929636533139274e-05
412, 8.90466253622435e-05
413, 8.879487722879276e-05
414, 8.85467161424458e-05
415, 8.829314901959151e-05
416, 8.8044602307491e-05
417, 8.778693154454231e-05
418, 8.753790461923927e-05
419, 8.72970194905065e-05
420, 8.704835636308417e-05
421, 8.679716847836971e-05
422, 8.65566689753905e-05
423, 8.630879165139049e-05
424, 8.605882612755522e-05
425, 8.581973816035315e-05
426, 8.556979446439072e-05
427, 8.533064828952774e-05
428, 8.508122846251354e-05
429, 8.484024147037417e-05
430, 8.459950186079368e-05
431, 8.43545058160089e-05
432, 8.41181754367426e-05
433, 8.387838897760957e-05
434, 8.363368397112936e-05
435, 8.339383930433542e-05
436, 8.315240120282397e-05
437, 8.291879203170538e-05
438, 8.268449164461344e-05
439, 8.24462840682827e-05
440, 8.221597818192095e-05
441, 8.198199793696404e-05
442, 8.175357652362436e-05
443, 8.152231748681515e-05
444, 8.129206980811432e-05
445, 8.10626515885815e-05
446, 8.084009459707886e-05
447, 8.06132738944143e-05
448, 8.03882721811533e-05
449, 8.016185893211514e-05
450, 7.993555482244119e-05
451, 7.971625018399209e-05
452, 7.949574501253664e-05
453, 7.92735445429571e-05
454, 7.905572419986129e-05
455, 7.884018123149872e-05
456, 7.86217424320057e-05
457, 7.840934995329008e-05
458, 7.819350139470771e-05
459, 7.797920261509717e-05
460, 7.776562415529042e-05
461, 7.755553815513849e-05
462, 7.734460814390332e-05
463, 7.713910599704832e-05
464, 7.693259976804256e-05
465, 7.671912317164242e-05
466, 7.651964551769197e-05
467, 7.631588960066438e-05
468, 7.610719330841675e-05
469, 7.590949826408178e-05
470, 7.570232264697552e-05
471, 7.549813017249107e-05
472, 7.530524453613907e-05
473, 7.510460272897035e-05
474, 7.490609277738258e-05
475, 7.471437857020646e-05
476, 7.451044803019613e-05
477, 7.431362610077485e-05
478, 7.412258855765685e-05
479, 7.39295210223645e-05
480, 7.373352127615362e-05
481, 7.354460831265897e-05
482, 7.334616384468973e-05
483, 7.315959373954684e-05
484, 7.297109550563619e-05
485, 7.278057455550879e-05
486, 7.259398262249306e-05
487, 7.240210106829181e-05
488, 7.222062413347885e-05
489, 7.202664710348472e-05
490, 7.183953130152076e-05
491, 7.166159775806591e-05
492, 7.14728157618083e-05
493, 7.128941069822758e-05
494, 7.110789010766894e-05
495, 7.092806481523439e-05
496, 7.074170571286231e-05
497, 7.056196045596153e-05
498, 7.03861442161724e-05
499, 7.020124758128077e-05
500, 7.002389611443505e-05
501, 6.98405783623457e-05
502, 6.966848741285503e-05
503, 6.948146619834006e-05
504, 6.93101974320598e-05
505, 6.913344259373844e-05
506, 6.896124978084117e-05
507, 6.878501881146803e-05
508, 6.860491703264415e-05
509, 6.843432493042201e-05
510, 6.825909804319963e-05
511, 6.808628677390516e-05
512, 6.792222848162055e-05
513, 6.7753171606455e-05
514, 6.75839401083067e-05
515, 6.741124525433406e-05
516, 6.724253762513399e-05
517, 6.707716966047883e-05
518, 6.690451118629426e-05
519, 6.673836469417438e-05
520, 6.657541962340474e-05
521, 6.640920037170872e-05
522, 6.624622619710863e-05
523, 6.608327385038137e-05
524, 6.591837154701352e-05
525, 6.576054147444665e-05
526, 6.559726898558438e-05
527, 6.543987547047436e-05
528, 6.527610094053671e-05
529, 6.511966057587415e-05
530, 6.496247806353495e-05
531, 6.480595038738102e-05
532, 6.464507896453142e-05
533, 6.449151260312647e-05
534, 6.434177339542657e-05
535, 6.418615521397442e-05
536, 6.403411680366844e-05
537, 6.388482870534062e-05
538, 6.373197538778186e-05
539, 6.35817414149642e-05
540, 6.342789129121229e-05
541, 6.32874362054281e-05
542, 6.313058838713914e-05
543, 6.298368680290878e-05
544, 6.283552647801116e-05
545, 6.269599543884397e-05
546, 6.254766776692122e-05
547, 6.239645881578326e-05
548, 6.22608931735158e-05
549, 6.211405707290396e-05
550, 6.196880713105202e-05
551, 6.183105142554268e-05
552, 6.169116386445239e-05
553, 6.154754373710603e-05
554, 6.141380436019972e-05
555, 6.126530934125185e-05
556, 6.113186100265011e-05
557, 6.0996895626885816e-05
558, 6.085883796913549e-05
559, 6.0719808971043676e-05
560, 6.058327198843472e-05
561, 6.0450918681453913e-05
562, 6.031344673829153e-05
563, 6.0178696003276855e-05
564, 6.004684473737143e-05
565, 5.9917070757364854e-05
566, 5.978240369586274e-05
567, 5.96515710640233e-05
568, 5.95169622101821e-05
569, 5.938353933743201e-05
570, 5.925614095758647e-05
571, 5.912940468988381e-05
572, 5.899675306864083e-05
573, 5.886938015464693e-05
574, 5.873985355719924e-05
575, 5.860673263669014e-05
576, 5.8487239584792405e-05
577, 5.8354256907477975e-05
578, 5.8230867580277845e-05
579, 5.8101235481444746e-05
580, 5.798118218081072e-05
581, 5.785716348327696e-05
582, 5.773050361312926e-05
583, 5.760985368397087e-05
584, 5.748611511080526e-05
585, 5.7363169617019594e-05
586, 5.723321737605147e-05
587, 5.711919948225841e-05
588, 5.699740722775459e-05
589, 5.687681550625712e-05
590, 5.675495049217716e-05
591, 5.6635406508576125e-05
592, 5.651309038512409e-05
593, 5.6393368140561506e-05
594, 5.6269705964950845e-05
595, 5.615883492282592e-05
596, 5.603857425739989e-05
597, 5.592269008047879e-05
598, 5.5809225159464404e-05
599, 5.5690263252472505e-05
600, 5.557481199502945e-05
601, 5.545784370042384e-05
602, 5.53455829503946e-05
603, 5.522730862139724e-05
604, 5.5115622672019526e-05
605, 5.500235056388192e-05
606, 5.4888496379135177e-05
607, 5.477264858200215e-05
608, 5.466121365316212e-05
609, 5.455212522065267e-05
610, 5.444022826850414e-05
611, 5.432631223811768e-05
612, 5.421478272182867e-05
613, 5.4107309551909566e-05
614, 5.399787551141344e-05
615, 5.3890540584689006e-05
616, 5.3778960136696696e-05
617, 5.36699008080177e-05
618, 5.356024485081434e-05
619, 5.345624958863482e-05
620, 5.3353280236478895e-05
621, 5.3244915761752054e-05
622, 5.313926885719411e-05
623, 5.303546640789136e-05
624, 5.2926385251339525e-05
625, 5.282573329168372e-05
626, 5.2721425163326785e-05
627, 5.2619601774495095e-05
628, 5.251650509308092e-05
629, 5.2417755796341226e-05
630, 5.23139133292716e-05
631, 5.220703314989805e-05
632, 5.210966264712624e-05
633, 5.2009425417054445e-05
634, 5.190836964175105e-05
635, 5.181203596293926e-05
636, 5.1710871048271656e-05
637, 5.161444641998969e-05
638, 5.1515042287064716e-05
639, 5.141853398527019e-05
640, 5.131268335389905e-05
641, 5.121793219586834e-05
642, 5.112543294671923e-05
643, 5.103002695250325e-05
644, 5.093832078273408e-05
645, 5.0835878937505186e-05
646, 5.074274668004364e-05
647, 5.0645554438233376e-05
648, 5.054927532910369e-05
649, 5.0460159400245175e-05
650, 5.0365742936264724e-05
651, 5.0272785301785916e-05
652, 5.0183032726636156e-05
653, 5.009075903217308e-05
654, 4.9998525355476886e-05
655, 4.991365858586505e-05
656, 4.9821072025224566e-05
657, 4.973151226295158e-05
658, 4.964179242961109e-05
659, 4.955747499479912e-05
660, 4.947425259160809e-05
661, 4.938206257065758e-05
662, 4.929868737235665e-05
663, 4.920971332467161e-05
664, 4.912232543574646e-05
665, 4.904295929009095e-05
666, 4.895773236057721e-05
667, 4.887497561867349e-05
668, 4.87925935885869e-05
669, 4.8702044296078384e-05
670, 4.862519563175738e-05
671, 4.8543290176894516e-05
672, 4.8463971324963495e-05
673, 4.838180757360533e-05
674, 4.830090620089322e-05
675, 4.8218120355159044e-05
676, 4.8134359531104565e-05
677, 4.805884600500576e-05
678, 4.7976522182580084e-05
679, 4.7898425691528246e-05
680, 4.781770257977769e-05
681, 4.773494947585277e-05
682, 4.7661655116826296e-05
683, 4.757770147989504e-05
684, 4.750150765175931e-05
685, 4.742596502183005e-05
686, 4.734853428089991e-05
687, 4.726797851617448e-05
688, 4.718654599855654e-05
689, 4.7107179852901027e-05
690, 4.702469959738664e-05
691, 4.6944151108618826e-05
692, 4.686313332058489e-05
693, 4.679017001762986e-05
694, 4.6713925257790834e-05
695, 4.664278094423935e-05
696, 4.6569908590754494e-05
697, 4.649357288144529e-05
698, 4.6416222176048905e-05
699, 4.6336550440173596e-05
700, 4.626779264071956e-05
701, 4.620203981176019e-05
702, 4.612870907294564e-05
703, 4.60600494989194e-05
704, 4.599168460117653e-05
705, 4.59189286630135e-05
706, 4.5850603783037513e-05
707, 4.577736399369314e-05
708, 4.5710337872151285e-05
709, 4.564187111100182e-05
710, 4.5569886424345896e-05
711, 4.549990626401268e-05
712, 4.543682371149771e-05
713, 4.537299901130609e-05
714, 4.530779551714659e-05
715, 4.5238975872052833e-05
716, 4.518049172475003e-05
717, 4.5114371459931135e-05
718, 4.504749085754156e-05
719, 4.4987493311055005e-05
720, 4.492005973588675e-05
721, 4.4854983570985496e-05
722, 4.4790038373321295e-05
723, 4.4727516069542617e-05
724, 4.466722020879388e-05
725, 4.459793490241282e-05
726, 4.453709698282182e-05
